D:\DATA\UserData\CuiTian20190403\CWH\BA\BA_19.tif: 2-theta Scan
2-Theta Angle (Degrees)
Intensity
       1481
 1.1054086E-02  4.1890232E+01
 3.3162259E-02  4.2371513E+01
 5.5270433E-02  4.3883259E+01
 7.7378608E-02  4.3817318E+01
 9.9486776E-02  4.4016602E+01
 1.2159495E-01  4.3333687E+01
 1.4370312E-01  4.2310795E+01
 1.6581130E-01  4.1790836E+01
 1.8791947E-01  4.2575859E+01
 2.1002764E-01  4.3131783E+01
 2.3213582E-01  4.2545818E+01
 2.5424400E-01  4.1772232E+01
 2.7635217E-01  4.2224098E+01
 2.9846033E-01  4.2551815E+01
 3.2056850E-01  4.3113163E+01
 3.4267667E-01  4.1913059E+01
 3.6478484E-01  4.1376915E+01
 3.8689303E-01  4.2170204E+01
 4.0900120E-01  4.2905041E+01
 4.3110937E-01  4.2699848E+01
 4.5321754E-01  4.3315723E+01
 4.7532570E-01  4.3428246E+01
 4.9743390E-01  4.3422768E+01
 5.1954204E-01  4.2609547E+01
 5.4165024E-01  4.2295982E+01
 5.6375843E-01  4.2802803E+01
 5.8586657E-01  4.3919075E+01
 6.0797477E-01  4.3924767E+01
 6.3008291E-01  4.3620304E+01
 6.5219110E-01  4.3787411E+01
 6.7429930E-01  4.4025009E+01
 6.9640744E-01  4.3985603E+01
 7.1851563E-01  4.4191250E+01
 7.4062377E-01  4.3494675E+01
 7.6273197E-01  4.3040630E+01
 7.8484011E-01  4.3114906E+01
 8.0694830E-01  4.3017651E+01
 8.2905650E-01  4.3198559E+01
 8.5116464E-01  4.3433861E+01
 8.7327284E-01  4.3499306E+01
 8.9538097E-01  4.3383556E+01
 9.1748917E-01  4.3209927E+01
 9.3959737E-01  4.3484276E+01
 9.6170551E-01  4.3414700E+01
 9.8381370E-01  4.3430679E+01
 1.0059218E+00  4.3756371E+01
 1.0280300E+00  4.4122650E+01
 1.0501382E+00  4.4567204E+01
 1.0722464E+00  4.4791332E+01
 1.0943545E+00  4.4265835E+01
 1.1164627E+00  4.4278717E+01
 1.1385709E+00  4.4690464E+01
 1.1606791E+00  4.4327072E+01
 1.1827873E+00  4.4219097E+01
 1.2048954E+00  4.4673458E+01
 1.2270036E+00  4.5194359E+01
 1.2491118E+00  4.5493607E+01
 1.2712200E+00  4.5343143E+01
 1.2933282E+00  4.5130062E+01
 1.3154362E+00  4.5393955E+01
 1.3375444E+00  4.5675877E+01
 1.3596526E+00  4.6187160E+01
 1.3817608E+00  4.6817707E+01
 1.4038690E+00  4.7416431E+01
 1.4259771E+00  4.7872913E+01
 1.4480853E+00  4.7530041E+01
 1.4701935E+00  4.6836773E+01
 1.4923017E+00  4.6617905E+01
 1.5144098E+00  4.6733730E+01
 1.5365180E+00  4.6972015E+01
 1.5586262E+00  4.7179375E+01
 1.5807344E+00  4.7449848E+01
 1.6028426E+00  4.8147182E+01
 1.6249506E+00  4.8605835E+01
 1.6470588E+00  4.8590626E+01
 1.6691670E+00  4.8664013E+01
 1.6912752E+00  4.9536125E+01
 1.7133834E+00  5.0737858E+01
 1.7354915E+00  5.1151859E+01
 1.7575997E+00  5.1271809E+01
 1.7797079E+00  5.1494709E+01
 1.8018161E+00  5.2258102E+01
 1.8239243E+00  5.3537735E+01
 1.8460324E+00  5.5372372E+01
 1.8681406E+00  5.8623241E+01
 1.8902488E+00  6.6398026E+01
 1.9123570E+00  8.4503601E+01
 1.9344652E+00  1.1580152E+02
 1.9565732E+00  1.5588600E+02
 1.9786814E+00  1.9699222E+02
 2.0007896E+00  2.3635391E+02
 2.0228977E+00  2.7447372E+02
 2.0450060E+00  3.1495883E+02
 2.0671141E+00  3.5552014E+02
 2.0892224E+00  4.0093631E+02
 2.1113305E+00  4.4842841E+02
 2.1334386E+00  5.0152676E+02
 2.1555469E+00  5.5990918E+02
 2.1776550E+00  6.1952716E+02
 2.1997633E+00  6.6801605E+02
 2.2218714E+00  7.1029980E+02
 2.2439795E+00  7.5029871E+02
 2.2660878E+00  7.8527258E+02
 2.2881958E+00  8.2008301E+02
 2.3103042E+00  8.5214325E+02
 2.3324122E+00  8.8466663E+02
 2.3545203E+00  9.1931287E+02
 2.3766286E+00  9.5214471E+02
 2.3987367E+00  9.8269464E+02
 2.4208450E+00  1.0127508E+03
 2.4429531E+00  1.0432078E+03
 2.4650612E+00  1.0714973E+03
 2.4871695E+00  1.1033010E+03
 2.5092776E+00  1.1307250E+03
 2.5313859E+00  1.1546000E+03
 2.5534940E+00  1.1791073E+03
 2.5756021E+00  1.2020891E+03
 2.5977104E+00  1.2244203E+03
 2.6198184E+00  1.2482688E+03
 2.6419268E+00  1.2739698E+03
 2.6640348E+00  1.2959648E+03
 2.6861429E+00  1.3180221E+03
 2.7082512E+00  1.3414938E+03
 2.7303593E+00  1.3627012E+03
 2.7524676E+00  1.3806638E+03
 2.7745757E+00  1.3995590E+03
 2.7966838E+00  1.4213884E+03
 2.8187921E+00  1.4436615E+03
 2.8409002E+00  1.4641174E+03
 2.8630083E+00  1.4838480E+03
 2.8851166E+00  1.5038356E+03
 2.9072247E+00  1.5206515E+03
 2.9293330E+00  1.5364054E+03
 2.9514410E+00  1.5538386E+03
 2.9735491E+00  1.5714578E+03
 2.9956574E+00  1.5901155E+03
 3.0177655E+00  1.6065394E+03
 3.0398738E+00  1.6210717E+03
 3.0619819E+00  1.6341223E+03
 3.0840900E+00  1.6479691E+03
 3.1061983E+00  1.6615364E+03
 3.1283064E+00  1.6741672E+03
 3.1504147E+00  1.6926213E+03
 3.1725228E+00  1.7068213E+03
 3.1946309E+00  1.7198712E+03
 3.2167392E+00  1.7300406E+03
 3.2388473E+00  1.7402227E+03
 3.2609556E+00  1.7517109E+03
 3.2830637E+00  1.7627299E+03
 3.3051717E+00  1.7763091E+03
 3.3272800E+00  1.7880806E+03
 3.3493881E+00  1.7968275E+03
 3.3714964E+00  1.8068912E+03
 3.3936045E+00  1.8195138E+03
 3.4157126E+00  1.8286210E+03
 3.4378209E+00  1.8393971E+03
 3.4599290E+00  1.8534020E+03
 3.4820373E+00  1.8636583E+03
 3.5041454E+00  1.8731039E+03
 3.5262535E+00  1.8826212E+03
 3.5483618E+00  1.8930435E+03
 3.5704699E+00  1.8998773E+03
 3.5925782E+00  1.9080920E+03
 3.6146863E+00  1.9188062E+03
 3.6367943E+00  1.9283154E+03
 3.6589026E+00  1.9354033E+03
 3.6810107E+00  1.9438517E+03
 3.7031190E+00  1.9518682E+03
 3.7252271E+00  1.9585842E+03
 3.7473352E+00  1.9610923E+03
 3.7694435E+00  1.9649829E+03
 3.7915516E+00  1.9739386E+03
 3.8136599E+00  1.9818738E+03
 3.8357680E+00  1.9891661E+03
 3.8578761E+00  1.9952416E+03
 3.8799844E+00  2.0027277E+03
 3.9020925E+00  2.0107932E+03
 3.9242008E+00  2.0186313E+03
 3.9463089E+00  2.0237103E+03
 3.9684169E+00  2.0319481E+03
 3.9905252E+00  2.0402944E+03
 4.0126333E+00  2.0452017E+03
 4.0347414E+00  2.0488401E+03
 4.0568495E+00  2.0552813E+03
 4.0789580E+00  2.0586826E+03
 4.1010661E+00  2.0617153E+03
 4.1231742E+00  2.0676421E+03
 4.1452823E+00  2.0723601E+03
 4.1673903E+00  2.0718936E+03
 4.1894989E+00  2.0716306E+03
 4.2116070E+00  2.0739756E+03
 4.2337151E+00  2.0784810E+03
 4.2558231E+00  2.0804683E+03
 4.2779312E+00  2.0843628E+03
 4.3000398E+00  2.0860554E+03
 4.3221478E+00  2.0889734E+03
 4.3442559E+00  2.0951982E+03
 4.3663640E+00  2.0949309E+03
 4.3884721E+00  2.0949766E+03
 4.4105806E+00  2.0999990E+03
 4.4326887E+00  2.1041731E+03
 4.4547968E+00  2.1094810E+03
 4.4769049E+00  2.1126650E+03
 4.4990129E+00  2.1135491E+03
 4.5211215E+00  2.1126365E+03
 4.5432296E+00  2.1111113E+03
 4.5653377E+00  2.1124290E+03
 4.5874457E+00  2.1148564E+03
 4.6095538E+00  2.1174431E+03
 4.6316624E+00  2.1193914E+03
 4.6537704E+00  2.1210784E+03
 4.6758785E+00  2.1212617E+03
 4.6979866E+00  2.1246848E+03
 4.7200947E+00  2.1288984E+03
 4.7422032E+00  2.1299021E+03
 4.7643113E+00  2.1321682E+03
 4.7864194E+00  2.1315825E+03
 4.8085275E+00  2.1322236E+03
 4.8306355E+00  2.1309448E+03
 4.8527441E+00  2.1308718E+03
 4.8748522E+00  2.1339932E+03
 4.8969603E+00  2.1358350E+03
 4.9190683E+00  2.1345635E+03
 4.9411764E+00  2.1334907E+03
 4.9632850E+00  2.1351045E+03
 4.9853930E+00  2.1373054E+03
 5.0075011E+00  2.1358145E+03
 5.0296092E+00  2.1354128E+03
 5.0517173E+00  2.1377295E+03
 5.0738258E+00  2.1421165E+03
 5.0959339E+00  2.1414993E+03
 5.1180420E+00  2.1391377E+03
 5.1401501E+00  2.1378381E+03
 5.1622581E+00  2.1364707E+03
 5.1843667E+00  2.1355396E+03
 5.2064748E+00  2.1380103E+03
 5.2285829E+00  2.1405215E+03
 5.2506909E+00  2.1420947E+03
 5.2727990E+00  2.1422205E+03
 5.2949076E+00  2.1426079E+03
 5.3170156E+00  2.1402600E+03
 5.3391237E+00  2.1368997E+03
 5.3612318E+00  2.1363416E+03
 5.3833399E+00  2.1364199E+03
 5.4054484E+00  2.1367856E+03
 5.4275565E+00  2.1348154E+03
 5.4496646E+00  2.1329429E+03
 5.4717727E+00  2.1334460E+03
 5.4938807E+00  2.1333162E+03
 5.5159893E+00  2.1341401E+03
 5.5380974E+00  2.1349353E+03
 5.5602055E+00  2.1360254E+03
 5.5823135E+00  2.1340164E+03
 5.6044216E+00  2.1355706E+03
 5.6265302E+00  2.1397048E+03
 5.6486382E+00  2.1378528E+03
 5.6707463E+00  2.1337651E+03
 5.6928544E+00  2.1319438E+03
 5.7149625E+00  2.1315664E+03
 5.7370710E+00  2.1321570E+03
 5.7591791E+00  2.1296501E+03
 5.7812872E+00  2.1289844E+03
 5.8033953E+00  2.1293381E+03
 5.8255033E+00  2.1297854E+03
 5.8476119E+00  2.1327649E+03
 5.8697200E+00  2.1318848E+03
 5.8918281E+00  2.1290356E+03
 5.9139361E+00  2.1265706E+03
 5.9360442E+00  2.1263630E+03
 5.9581528E+00  2.1265396E+03
 5.9802608E+00  2.1239702E+03
 6.0023689E+00  2.1207585E+03
 6.0244770E+00  2.1192993E+03
 6.0465851E+00  2.1204219E+03
 6.0686936E+00  2.1202307E+03
 6.0908017E+00  2.1202229E+03
 6.1129098E+00  2.1215293E+03
 6.1350179E+00  2.1227817E+03
 6.1571259E+00  2.1216238E+03
 6.1792345E+00  2.1194158E+03
 6.2013426E+00  2.1181543E+03
 6.2234507E+00  2.1178635E+03
 6.2455587E+00  2.1175596E+03
 6.2676668E+00  2.1180281E+03
 6.2897754E+00  2.1187131E+03
 6.3118834E+00  2.1157939E+03
 6.3339915E+00  2.1154578E+03
 6.3560996E+00  2.1159468E+03
 6.3782077E+00  2.1159373E+03
 6.4003162E+00  2.1159788E+03
 6.4224243E+00  2.1146409E+03
 6.4445324E+00  2.1116252E+03
 6.4666405E+00  2.1122478E+03
 6.4887486E+00  2.1128132E+03
 6.5108571E+00  2.1101240E+03
 6.5329652E+00  2.1075146E+03
 6.5550733E+00  2.1064902E+03
 6.5771813E+00  2.1086558E+03
 6.5992894E+00  2.1100173E+03
 6.6213980E+00  2.1102651E+03
 6.6435061E+00  2.1090574E+03
 6.6656141E+00  2.1055496E+03
 6.6877222E+00  2.1048804E+03
 6.7098303E+00  2.1041875E+03
 6.7319388E+00  2.1033276E+03
 6.7540469E+00  2.1053110E+03
 6.7761550E+00  2.1040645E+03
 6.7982631E+00  2.1027485E+03
 6.8203712E+00  2.1021028E+03
 6.8424797E+00  2.1013376E+03
 6.8645878E+00  2.0996917E+03
 6.8866959E+00  2.0986208E+03
 6.9088039E+00  2.0983145E+03
 6.9309120E+00  2.0972354E+03
 6.9530206E+00  2.0969358E+03
 6.9751287E+00  2.0974817E+03
 6.9972367E+00  2.0983975E+03
 7.0193448E+00  2.0981331E+03
 7.0414529E+00  2.0953586E+03
 7.0635614E+00  2.0936318E+03
 7.0856695E+00  2.0934082E+03
 7.1077776E+00  2.0919563E+03
 7.1298857E+00  2.0905293E+03
 7.1519938E+00  2.0893489E+03
 7.1741023E+00  2.0891421E+03
 7.1962104E+00  2.0879050E+03
 7.2183185E+00  2.0871201E+03
 7.2404265E+00  2.0848723E+03
 7.2625346E+00  2.0838306E+03
 7.2846432E+00  2.0816084E+03
 7.3067513E+00  2.0821089E+03
 7.3288593E+00  2.0835872E+03
 7.3509674E+00  2.0822456E+03
 7.3730755E+00  2.0812856E+03
 7.3951840E+00  2.0810723E+03
 7.4172921E+00  2.0812957E+03
 7.4394002E+00  2.0802947E+03
 7.4615083E+00  2.0760320E+03
 7.4836164E+00  2.0753201E+03
 7.5057249E+00  2.0761350E+03
 7.5278330E+00  2.0753330E+03
 7.5499411E+00  2.0752100E+03
 7.5720491E+00  2.0739873E+03
 7.5941572E+00  2.0719680E+03
 7.6162653E+00  2.0703015E+03
 7.6383739E+00  2.0728477E+03
 7.6604819E+00  2.0743115E+03
 7.6825900E+00  2.0740269E+03
 7.7046981E+00  2.0721560E+03
 7.7268062E+00  2.0715215E+03
 7.7489147E+00  2.0710300E+03
 7.7710228E+00  2.0694417E+03
 7.7931309E+00  2.0693333E+03
 7.8152390E+00  2.0701677E+03
 7.8373470E+00  2.0708760E+03
 7.8594556E+00  2.0714578E+03
 7.8815637E+00  2.0730720E+03
 7.9036717E+00  2.0740403E+03
 7.9257798E+00  2.0732051E+03
 7.9478879E+00  2.0724238E+03
 7.9699965E+00  2.0723816E+03
 7.9921045E+00  2.0725662E+03
 8.0142126E+00  2.0750371E+03
 8.0363207E+00  2.0749365E+03
 8.0584288E+00  2.0737268E+03
 8.0805368E+00  2.0761609E+03
 8.1026449E+00  2.0780505E+03
 8.1247540E+00  2.0792129E+03
 8.1468620E+00  2.0805381E+03
 8.1689701E+00  2.0806975E+03
 8.1910782E+00  2.0815305E+03
 8.2131863E+00  2.0846462E+03
 8.2352943E+00  2.0876401E+03
 8.2574024E+00  2.0904690E+03
 8.2795105E+00  2.0923420E+03
 8.3016186E+00  2.0952659E+03
 8.3237267E+00  2.1006328E+03
 8.3458357E+00  2.1063892E+03
 8.3679438E+00  2.1132488E+03
 8.3900518E+00  2.1206506E+03
 8.4121599E+00  2.1272324E+03
 8.4342680E+00  2.1308521E+03
 8.4563761E+00  2.1364136E+03
 8.4784842E+00  2.1411589E+03
 8.5005922E+00  2.1448040E+03
 8.5227003E+00  2.1452563E+03
 8.5448084E+00  2.1420073E+03
 8.5669174E+00  2.1364060E+03
 8.5890255E+00  2.1319548E+03
 8.6111336E+00  2.1291746E+03
 8.6332417E+00  2.1245005E+03
 8.6553497E+00  2.1211702E+03
 8.6774578E+00  2.1180740E+03
 8.6995659E+00  2.1184187E+03
 8.7216740E+00  2.1179956E+03
 8.7437820E+00  2.1170454E+03
 8.7658901E+00  2.1166143E+03
 8.7879992E+00  2.1167678E+03
 8.8101072E+00  2.1176943E+03
 8.8322153E+00  2.1182222E+03
 8.8543234E+00  2.1174805E+03
 8.8764315E+00  2.1171855E+03
 8.8985395E+00  2.1161785E+03
 8.9206476E+00  2.1136089E+03
 8.9427557E+00  2.1116860E+03
 8.9648638E+00  2.1086882E+03
 8.9869719E+00  2.1055977E+03
 9.0090809E+00  2.1047185E+03
 9.0311890E+00  2.1036992E+03
 9.0532970E+00  2.1013521E+03
 9.0754051E+00  2.0990239E+03
 9.0975132E+00  2.0967446E+03
 9.1196213E+00  2.0934490E+03
 9.1417294E+00  2.0940984E+03
 9.1638374E+00  2.0948601E+03
 9.1859455E+00  2.0937615E+03
 9.2080536E+00  2.0923479E+03
 9.2301626E+00  2.0951912E+03
 9.2522707E+00  2.0981707E+03
 9.2743788E+00  2.1013328E+03
 9.2964869E+00  2.1021951E+03
 9.3185949E+00  2.1043330E+03
 9.3407030E+00  2.1098044E+03
 9.3628111E+00  2.1164561E+03
 9.3849192E+00  2.1258596E+03
 9.4070272E+00  2.1397480E+03
 9.4291353E+00  2.1496238E+03
 9.4512434E+00  2.1490007E+03
 9.4733524E+00  2.1437903E+03
 9.4954605E+00  2.1388054E+03
 9.5175686E+00  2.1362991E+03
 9.5396767E+00  2.1372673E+03
 9.5617847E+00  2.1393232E+03
 9.5838928E+00  2.1461458E+03
 9.6060009E+00  2.1547539E+03
 9.6281090E+00  2.1639185E+03
 9.6502171E+00  2.1730947E+03
 9.6723251E+00  2.1823096E+03
 9.6944342E+00  2.1905132E+03
 9.7165422E+00  2.1983018E+03
 9.7386503E+00  2.2033862E+03
 9.7607584E+00  2.2032622E+03
 9.7828665E+00  2.2000203E+03
 9.8049746E+00  2.1949238E+03
 9.8270826E+00  2.1877273E+03
 9.8491907E+00  2.1788984E+03
 9.8712988E+00  2.1745334E+03
 9.8934069E+00  2.1713850E+03
 9.9155159E+00  2.1678931E+03
 9.9376240E+00  2.1664592E+03
 9.9597321E+00  2.1699143E+03
 9.9818401E+00  2.1720173E+03
 1.0003948E+01  2.1739866E+03
 1.0026056E+01  2.1744875E+03
 1.0048164E+01  2.1756931E+03
 1.0070272E+01  2.1792642E+03
 1.0092381E+01  2.1813997E+03
 1.0114489E+01  2.1821865E+03
 1.0136598E+01  2.1821128E+03
 1.0158706E+01  2.1804739E+03
 1.0180814E+01  2.1792888E+03
 1.0202922E+01  2.1789197E+03
 1.0225030E+01  2.1796604E+03
 1.0247138E+01  2.1811123E+03
 1.0269246E+01  2.1856047E+03
 1.0291354E+01  2.1909192E+03
 1.0313462E+01  2.1965220E+03
 1.0335570E+01  2.2024890E+03
 1.0357679E+01  2.2097683E+03
 1.0379787E+01  2.2161604E+03
 1.0401896E+01  2.2238950E+03
 1.0424004E+01  2.2319536E+03
 1.0446112E+01  2.2417131E+03
 1.0468220E+01  2.2538501E+03
 1.0490328E+01  2.2669146E+03
 1.0512436E+01  2.2787454E+03
 1.0534544E+01  2.2898008E+03
 1.0556652E+01  2.3043889E+03
 1.0578761E+01  2.3199495E+03
 1.0600869E+01  2.3331914E+03
 1.0622977E+01  2.3447314E+03
 1.0645085E+01  2.3544768E+03
 1.0667193E+01  2.3637502E+03
 1.0689301E+01  2.3714702E+03
 1.0711410E+01  2.3750684E+03
 1.0733518E+01  2.3740706E+03
 1.0755626E+01  2.3715952E+03
 1.0777734E+01  2.3704229E+03
 1.0799843E+01  2.3663079E+03
 1.0821951E+01  2.3649365E+03
 1.0844059E+01  2.3660391E+03
 1.0866167E+01  2.3683630E+03
 1.0888275E+01  2.3709568E+03
 1.0910383E+01  2.3728342E+03
 1.0932491E+01  2.3766206E+03
 1.0954599E+01  2.3805347E+03
 1.0976707E+01  2.3826663E+03
 1.0998816E+01  2.3779548E+03
 1.1020925E+01  2.3702693E+03
 1.1043033E+01  2.3627766E+03
 1.1065141E+01  2.3545635E+03
 1.1087249E+01  2.3450137E+03
 1.1109357E+01  2.3379753E+03
 1.1131465E+01  2.3320999E+03
 1.1153573E+01  2.3243511E+03
 1.1175681E+01  2.3172395E+03
 1.1197789E+01  2.3120405E+03
 1.1219897E+01  2.3091799E+03
 1.1242006E+01  2.3069973E+03
 1.1264114E+01  2.3060906E+03
 1.1286222E+01  2.3041855E+03
 1.1308331E+01  2.3012842E+03
 1.1330439E+01  2.3005972E+03
 1.1352547E+01  2.2991567E+03
 1.1374655E+01  2.2963645E+03
 1.1396763E+01  2.2933848E+03
 1.1418871E+01  2.2903301E+03
 1.1440979E+01  2.2862793E+03
 1.1463088E+01  2.2836707E+03
 1.1485196E+01  2.2822910E+03
 1.1507304E+01  2.2802759E+03
 1.1529412E+01  2.2778499E+03
 1.1551520E+01  2.2765164E+03
 1.1573628E+01  2.2737051E+03
 1.1595737E+01  2.2700625E+03
 1.1617845E+01  2.2691465E+03
 1.1639953E+01  2.2649050E+03
 1.1662061E+01  2.2587727E+03
 1.1684170E+01  2.2562029E+03
 1.1706278E+01  2.2531140E+03
 1.1728386E+01  2.2468076E+03
 1.1750494E+01  2.2410310E+03
 1.1772602E+01  2.2366086E+03
 1.1794710E+01  2.2332104E+03
 1.1816818E+01  2.2287324E+03
 1.1838926E+01  2.2232656E+03
 1.1861034E+01  2.2201428E+03
 1.1883142E+01  2.2185078E+03
 1.1905252E+01  2.2173948E+03
 1.1927360E+01  2.2156082E+03
 1.1949468E+01  2.2133962E+03
 1.1971576E+01  2.2111172E+03
 1.1993684E+01  2.2075242E+03
 1.2015792E+01  2.2021218E+03
 1.2037900E+01  2.1977415E+03
 1.2060008E+01  2.1938643E+03
 1.2082116E+01  2.1906675E+03
 1.2104224E+01  2.1883420E+03
 1.2126333E+01  2.1876831E+03
 1.2148441E+01  2.1870918E+03
 1.2170549E+01  2.1853940E+03
 1.2192657E+01  2.1844595E+03
 1.2214766E+01  2.1813757E+03
 1.2236874E+01  2.1797517E+03
 1.2258982E+01  2.1785173E+03
 1.2281090E+01  2.1771511E+03
 1.2303198E+01  2.1786851E+03
 1.2325306E+01  2.1790608E+03
 1.2347415E+01  2.1793459E+03
 1.2369523E+01  2.1789231E+03
 1.2391631E+01  2.1775608E+03
 1.2413739E+01  2.1764863E+03
 1.2435847E+01  2.1770903E+03
 1.2457955E+01  2.1772842E+03
 1.2480063E+01  2.1763552E+03
 1.2502172E+01  2.1736914E+03
 1.2524280E+01  2.1715112E+03
 1.2546388E+01  2.1710667E+03
 1.2568497E+01  2.1690532E+03
 1.2590605E+01  2.1679661E+03
 1.2612713E+01  2.1671318E+03
 1.2634821E+01  2.1665713E+03
 1.2656929E+01  2.1655059E+03
 1.2679037E+01  2.1648499E+03
 1.2701145E+01  2.1655696E+03
 1.2723253E+01  2.1656941E+03
 1.2745361E+01  2.1649290E+03
 1.2767469E+01  2.1651680E+03
 1.2789578E+01  2.1659771E+03
 1.2811687E+01  2.1668545E+03
 1.2833795E+01  2.1660789E+03
 1.2855903E+01  2.1642742E+03
 1.2878011E+01  2.1639927E+03
 1.2900119E+01  2.1644460E+03
 1.2922227E+01  2.1655815E+03
 1.2944335E+01  2.1673262E+03
 1.2966443E+01  2.1676438E+03
 1.2988551E+01  2.1680229E+03
 1.3010660E+01  2.1689771E+03
 1.3032768E+01  2.1711487E+03
 1.3054876E+01  2.1727163E+03
 1.3076984E+01  2.1735361E+03
 1.3099092E+01  2.1736580E+03
 1.3121201E+01  2.1735007E+03
 1.3143309E+01  2.1736443E+03
 1.3165417E+01  2.1751729E+03
 1.3187525E+01  2.1763359E+03
 1.3209633E+01  2.1800796E+03
 1.3231741E+01  2.1816514E+03
 1.3253850E+01  2.1832053E+03
 1.3275958E+01  2.1871753E+03
 1.3298066E+01  2.1909341E+03
 1.3320174E+01  2.1959736E+03
 1.3342282E+01  2.1988149E+03
 1.3364390E+01  2.1944988E+03
 1.3386498E+01  2.1934531E+03
 1.3408607E+01  2.1946545E+03
 1.3430715E+01  2.1915229E+03
 1.3452823E+01  2.1881519E+03
 1.3474932E+01  2.1870178E+03
 1.3497040E+01  2.1874041E+03
 1.3519148E+01  2.1874055E+03
 1.3541256E+01  2.1883579E+03
 1.3563364E+01  2.1897031E+03
 1.3585472E+01  2.1916169E+03
 1.3607580E+01  2.1938083E+03
 1.3629688E+01  2.1957390E+03
 1.3651796E+01  2.1971655E+03
 1.3673904E+01  2.1967671E+03
 1.3696013E+01  2.1973586E+03
 1.3718122E+01  2.1987234E+03
 1.3740230E+01  2.1995071E+03
 1.3762338E+01  2.1999380E+03
 1.3784446E+01  2.1994756E+03
 1.3806554E+01  2.2000251E+03
 1.3828662E+01  2.2004810E+03
 1.3850770E+01  2.1989175E+03
 1.3872878E+01  2.1971958E+03
 1.3894986E+01  2.1964082E+03
 1.3917095E+01  2.1959697E+03
 1.3939203E+01  2.1953218E+03
 1.3961311E+01  2.1964863E+03
 1.3983419E+01  2.1975942E+03
 1.4005527E+01  2.1985083E+03
 1.4027636E+01  2.1997349E+03
 1.4049744E+01  2.1995110E+03
 1.4071852E+01  2.2003140E+03
 1.4093960E+01  2.2022947E+03
 1.4116068E+01  2.2057898E+03
 1.4138177E+01  2.2075908E+03
 1.4160285E+01  2.2114167E+03
 1.4182393E+01  2.2152236E+03
 1.4204501E+01  2.2164248E+03
 1.4226609E+01  2.2173323E+03
 1.4248717E+01  2.2171157E+03
 1.4270825E+01  2.2173599E+03
 1.4292933E+01  2.2170459E+03
 1.4315042E+01  2.2155706E+03
 1.4337150E+01  2.2152888E+03
 1.4359259E+01  2.2166809E+03
 1.4381367E+01  2.2172913E+03
 1.4403475E+01  2.2174241E+03
 1.4425583E+01  2.2177441E+03
 1.4447691E+01  2.2185203E+03
 1.4469799E+01  2.2202192E+03
 1.4491907E+01  2.2208977E+03
 1.4514015E+01  2.2201648E+03
 1.4536123E+01  2.2192898E+03
 1.4558231E+01  2.2185083E+03
 1.4580340E+01  2.2183445E+03
 1.4602448E+01  2.2187754E+03
 1.4624557E+01  2.2199509E+03
 1.4646665E+01  2.2215337E+03
 1.4668773E+01  2.2208784E+03
 1.4690881E+01  2.2215691E+03
 1.4712989E+01  2.2221384E+03
 1.4735097E+01  2.2211292E+03
 1.4757205E+01  2.2212490E+03
 1.4779313E+01  2.2207898E+03
 1.4801422E+01  2.2203596E+03
 1.4823530E+01  2.2217737E+03
 1.4845638E+01  2.2240747E+03
 1.4867746E+01  2.2256179E+03
 1.4889854E+01  2.2261379E+03
 1.4911963E+01  2.2252585E+03
 1.4934071E+01  2.2267222E+03
 1.4956179E+01  2.2280779E+03
 1.4978287E+01  2.2292388E+03
 1.5000395E+01  2.2307798E+03
 1.5022504E+01  2.2331265E+03
 1.5044612E+01  2.2350315E+03
 1.5066720E+01  2.2363552E+03
 1.5088828E+01  2.2378335E+03
 1.5110936E+01  2.2385178E+03
 1.5133044E+01  2.2404897E+03
 1.5155152E+01  2.2433267E+03
 1.5177260E+01  2.2451482E+03
 1.5199368E+01  2.2458936E+03
 1.5221477E+01  2.2467522E+03
 1.5243586E+01  2.2494067E+03
 1.5265694E+01  2.2519497E+03
 1.5287802E+01  2.2537742E+03
 1.5309910E+01  2.2565032E+03
 1.5332018E+01  2.2596033E+03
 1.5354126E+01  2.2611069E+03
 1.5376234E+01  2.2626211E+03
 1.5398342E+01  2.2642488E+03
 1.5420450E+01  2.2664202E+03
 1.5442558E+01  2.2662097E+03
 1.5464667E+01  2.2657314E+03
 1.5486775E+01  2.2661963E+03
 1.5508883E+01  2.2660969E+03
 1.5530992E+01  2.2671465E+03
 1.5553100E+01  2.2682563E+03
 1.5575208E+01  2.2703472E+03
 1.5597316E+01  2.2710588E+03
 1.5619424E+01  2.2706667E+03
 1.5641532E+01  2.2693403E+03
 1.5663640E+01  2.2695293E+03
 1.5685749E+01  2.2690764E+03
 1.5707857E+01  2.2679929E+03
 1.5729965E+01  2.2676023E+03
 1.5752073E+01  2.2682019E+03
 1.5774181E+01  2.2695254E+03
 1.5796289E+01  2.2695229E+03
 1.5818398E+01  2.2701606E+03
 1.5840506E+01  2.2684202E+03
 1.5862614E+01  2.2688420E+03
 1.5884722E+01  2.2700842E+03
 1.5906831E+01  2.2716848E+03
 1.5928939E+01  2.2747546E+03
 1.5951047E+01  2.2747026E+03
 1.5973155E+01  2.2742427E+03
 1.5995263E+01  2.2761484E+03
 1.6017372E+01  2.2775376E+03
 1.6039480E+01  2.2793450E+03
 1.6061588E+01  2.2808552E+03
 1.6083696E+01  2.2795007E+03
 1.6105804E+01  2.2775278E+03
 1.6127913E+01  2.2783337E+03
 1.6150021E+01  2.2789702E+03
 1.6172129E+01  2.2788643E+03
 1.6194237E+01  2.2793452E+03
 1.6216345E+01  2.2792944E+03
 1.6238453E+01  2.2813691E+03
 1.6260561E+01  2.2827009E+03
 1.6282669E+01  2.2823608E+03
 1.6304777E+01  2.2834065E+03
 1.6326885E+01  2.2843250E+03
 1.6348993E+01  2.2832395E+03
 1.6371101E+01  2.2812966E+03
 1.6393209E+01  2.2778589E+03
 1.6415318E+01  2.2747942E+03
 1.6437426E+01  2.2719753E+03
 1.6459536E+01  2.2700959E+03
 1.6481644E+01  2.2687173E+03
 1.6503752E+01  2.2665879E+03
 1.6525860E+01  2.2655376E+03
 1.6547968E+01  2.2650737E+03
 1.6570076E+01  2.2643281E+03
 1.6592184E+01  2.2652515E+03
 1.6614292E+01  2.2636741E+03
 1.6636400E+01  2.2616375E+03
 1.6658508E+01  2.2621011E+03
 1.6680616E+01  2.2611741E+03
 1.6702724E+01  2.2597183E+03
 1.6724833E+01  2.2596775E+03
 1.6746941E+01  2.2591711E+03
 1.6769049E+01  2.2568857E+03
 1.6791157E+01  2.2559026E+03
 1.6813265E+01  2.2555857E+03
 1.6835373E+01  2.2526143E+03
 1.6857481E+01  2.2520818E+03
 1.6879589E+01  2.2527026E+03
 1.6901699E+01  2.2531614E+03
 1.6923807E+01  2.2527144E+03
 1.6945915E+01  2.2525452E+03
 1.6968023E+01  2.2536887E+03
 1.6990131E+01  2.2545752E+03
 1.7012239E+01  2.2565925E+03
 1.7034348E+01  2.2575562E+03
 1.7056456E+01  2.2557554E+03
 1.7078564E+01  2.2556982E+03
 1.7100672E+01  2.2564075E+03
 1.7122780E+01  2.2563020E+03
 1.7144888E+01  2.2558118E+03
 1.7166996E+01  2.2530227E+03
 1.7189104E+01  2.2511001E+03
 1.7211212E+01  2.2495247E+03
 1.7233320E+01  2.2478857E+03
 1.7255428E+01  2.2463970E+03
 1.7277536E+01  2.2453857E+03
 1.7299644E+01  2.2442532E+03
 1.7321753E+01  2.2444409E+03
 1.7343861E+01  2.2442070E+03
 1.7365971E+01  2.2444626E+03
 1.7388079E+01  2.2450466E+03
 1.7410187E+01  2.2447212E+03
 1.7432295E+01  2.2433279E+03
 1.7454403E+01  2.2417703E+03
 1.7476511E+01  2.2387351E+03
 1.7498619E+01  2.2352632E+03
 1.7520727E+01  2.2340220E+03
 1.7542835E+01  2.2329285E+03
 1.7564943E+01  2.2313867E+03
 1.7587051E+01  2.2301213E+03
 1.7609159E+01  2.2293867E+03
 1.7631268E+01  2.2277883E+03
 1.7653376E+01  2.2253098E+03
 1.7675484E+01  2.2223770E+03
 1.7697592E+01  2.2202813E+03
 1.7719700E+01  2.2195281E+03
 1.7741808E+01  2.2185754E+03
 1.7763916E+01  2.2183423E+03
 1.7786024E+01  2.2167993E+03
 1.7808134E+01  2.2147859E+03
 1.7830242E+01  2.2138176E+03
 1.7852350E+01  2.2136213E+03
 1.7874458E+01  2.2146433E+03
 1.7896566E+01  2.2151550E+03
 1.7918674E+01  2.2150581E+03
 1.7940783E+01  2.2130764E+03
 1.7962891E+01  2.2104905E+03
 1.7984999E+01  2.2084182E+03
 1.8007107E+01  2.2058811E+03
 1.8029215E+01  2.2042153E+03
 1.8051323E+01  2.2023167E+03
 1.8073431E+01  2.2001089E+03
 1.8095539E+01  2.1964421E+03
 1.8117647E+01  2.1947686E+03
 1.8139755E+01  2.1947810E+03
 1.8161863E+01  2.1937021E+03
 1.8183971E+01  2.1931553E+03
 1.8206079E+01  2.1929353E+03
 1.8228188E+01  2.1917690E+03
 1.8250298E+01  2.1902244E+03
 1.8272406E+01  2.1876843E+03
 1.8294514E+01  2.1855967E+03
 1.8316622E+01  2.1841257E+03
 1.8338730E+01  2.1834507E+03
 1.8360838E+01  2.1822119E+03
 1.8382946E+01  2.1799043E+03
 1.8405054E+01  2.1780291E+03
 1.8427162E+01  2.1756677E+03
 1.8449270E+01  2.1739441E+03
 1.8471378E+01  2.1734246E+03
 1.8493486E+01  2.1721880E+03
 1.8515594E+01  2.1734910E+03
 1.8537703E+01  2.1738057E+03
 1.8559811E+01  2.1732341E+03
 1.8581919E+01  2.1726533E+03
 1.8604027E+01  2.1714048E+03
 1.8626135E+01  2.1716191E+03
 1.8648243E+01  2.1714019E+03
 1.8670351E+01  2.1720930E+03
 1.8692461E+01  2.1713730E+03
 1.8714569E+01  2.1707666E+03
 1.8736677E+01  2.1712551E+03
 1.8758785E+01  2.1693020E+03
 1.8780893E+01  2.1676702E+03
 1.8803001E+01  2.1657268E+03
 1.8825109E+01  2.1626394E+03
 1.8847218E+01  2.1597336E+03
 1.8869326E+01  2.1551875E+03
 1.8891434E+01  2.1515042E+03
 1.8913542E+01  2.1491328E+03
 1.8935650E+01  2.1456897E+03
 1.8957758E+01  2.1392434E+03
 1.8979866E+01  2.1319043E+03
 1.9001974E+01  2.1284202E+03
 1.9024082E+01  2.1256416E+03
 1.9046190E+01  2.1204653E+03
 1.9068298E+01  2.1163862E+03
 1.9090406E+01  2.1130493E+03
 1.9112514E+01  2.1101853E+03
 1.9134624E+01  2.1058486E+03
 1.9156733E+01  2.1013491E+03
 1.9178841E+01  2.0986482E+03
 1.9200949E+01  2.0967544E+03
 1.9223057E+01  2.0957495E+03
 1.9245165E+01  2.0924375E+03
 1.9267273E+01  2.0866775E+03
 1.9289381E+01  2.0828623E+03
 1.9311489E+01  2.0804763E+03
 1.9333597E+01  2.0780049E+03
 1.9355705E+01  2.0751631E+03
 1.9377813E+01  2.0717097E+03
 1.9399921E+01  2.0685496E+03
 1.9422029E+01  2.0675120E+03
 1.9444138E+01  2.0654695E+03
 1.9466246E+01  2.0614385E+03
 1.9488354E+01  2.0592686E+03
 1.9510462E+01  2.0564036E+03
 1.9532570E+01  2.0538879E+03
 1.9554678E+01  2.0514250E+03
 1.9576788E+01  2.0489487E+03
 1.9598896E+01  2.0476533E+03
 1.9621004E+01  2.0455118E+03
 1.9643112E+01  2.0415845E+03
 1.9665220E+01  2.0377000E+03
 1.9687328E+01  2.0347776E+03
 1.9709436E+01  2.0331680E+03
 1.9731544E+01  2.0314453E+03
 1.9753653E+01  2.0289659E+03
 1.9775761E+01  2.0263242E+03
 1.9797869E+01  2.0233059E+03
 1.9819977E+01  2.0216144E+03
 1.9842085E+01  2.0199863E+03
 1.9864193E+01  2.0179531E+03
 1.9886301E+01  2.0156766E+03
 1.9908409E+01  2.0125635E+03
 1.9930517E+01  2.0099114E+03
 1.9952625E+01  2.0085945E+03
 1.9974733E+01  2.0066025E+03
 1.9996841E+01  2.0046423E+03
 2.0018951E+01  2.0036302E+03
 2.0041059E+01  2.0025304E+03
 2.0063168E+01  2.0003517E+03
 2.0085276E+01  1.9978334E+03
 2.0107384E+01  1.9954918E+03
 2.0129492E+01  1.9940958E+03
 2.0151600E+01  1.9938029E+03
 2.0173708E+01  1.9919264E+03
 2.0195816E+01  1.9887045E+03
 2.0217924E+01  1.9855645E+03
 2.0240032E+01  1.9826147E+03
 2.0262140E+01  1.9804597E+03
 2.0284248E+01  1.9799884E+03
 2.0306356E+01  1.9777218E+03
 2.0328465E+01  1.9740331E+03
 2.0350573E+01  1.9714695E+03
 2.0372681E+01  1.9690590E+03
 2.0394789E+01  1.9664417E+03
 2.0416897E+01  1.9656346E+03
 2.0439005E+01  1.9628452E+03
 2.0461115E+01  1.9599315E+03
 2.0483223E+01  1.9569747E+03
 2.0505331E+01  1.9534321E+03
 2.0527439E+01  1.9512504E+03
 2.0549547E+01  1.9500499E+03
 2.0571655E+01  1.9477822E+03
 2.0593763E+01  1.9449926E+03
 2.0615871E+01  1.9434803E+03
 2.0637980E+01  1.9412697E+03
 2.0660088E+01  1.9391671E+03
 2.0682196E+01  1.9358131E+03
 2.0704304E+01  1.9334989E+03
 2.0726412E+01  1.9318037E+03
 2.0748520E+01  1.9305157E+03
 2.0770628E+01  1.9285092E+03
 2.0792736E+01  1.9271521E+03
 2.0814844E+01  1.9248724E+03
 2.0836952E+01  1.9228503E+03
 2.0859060E+01  1.9202692E+03
 2.0881168E+01  1.9190658E+03
 2.0903276E+01  1.9179336E+03
 2.0925386E+01  1.9168535E+03
 2.0947495E+01  1.9144598E+03
 2.0969603E+01  1.9124299E+03
 2.0991711E+01  1.9109988E+03
 2.1013819E+01  1.9091344E+03
 2.1035927E+01  1.9063783E+03
 2.1058035E+01  1.9048746E+03
 2.1080143E+01  1.9052937E+03
 2.1102251E+01  1.9031498E+03
 2.1124359E+01  1.9002274E+03
 2.1146467E+01  1.9002158E+03
 2.1168575E+01  1.8988560E+03
 2.1190683E+01  1.8957698E+03
 2.1212791E+01  1.8955135E+03
 2.1234900E+01  1.8952183E+03
 2.1257008E+01  1.8925313E+03
 2.1279116E+01  1.8901548E+03
 2.1301224E+01  1.8902694E+03
 2.1323332E+01  1.8891796E+03
 2.1345440E+01  1.8872397E+03
 2.1367550E+01  1.8856504E+03
 2.1389658E+01  1.8847507E+03
 2.1411766E+01  1.8825559E+03
 2.1433874E+01  1.8805139E+03
 2.1455982E+01  1.8798793E+03
 2.1478090E+01  1.8783481E+03
 2.1500198E+01  1.8759807E+03
 2.1522306E+01  1.8737770E+03
 2.1544415E+01  1.8715516E+03
 2.1566523E+01  1.8697130E+03
 2.1588631E+01  1.8678397E+03
 2.1610739E+01  1.8661936E+03
 2.1632847E+01  1.8632433E+03
 2.1654955E+01  1.8622610E+03
 2.1677063E+01  1.8604709E+03
 2.1699171E+01  1.8593666E+03
 2.1721279E+01  1.8580405E+03
 2.1743387E+01  1.8559102E+03
 2.1765495E+01  1.8541868E+03
 2.1787603E+01  1.8530400E+03
 2.1809713E+01  1.8504020E+03
 2.1831821E+01  1.8477638E+03
 2.1853930E+01  1.8457922E+03
 2.1876038E+01  1.8435258E+03
 2.1898146E+01  1.8416667E+03
 2.1920254E+01  1.8416809E+03
 2.1942362E+01  1.8401182E+03
 2.1964470E+01  1.8372903E+03
 2.1986578E+01  1.8362684E+03
 2.2008686E+01  1.8360002E+03
 2.2030794E+01  1.8348983E+03
 2.2052902E+01  1.8328938E+03
 2.2075010E+01  1.8316594E+03
 2.2097118E+01  1.8305127E+03
 2.2119226E+01  1.8293434E+03
 2.2141335E+01  1.8286860E+03
 2.2163443E+01  1.8271604E+03
 2.2185551E+01  1.8244039E+03
 2.2207659E+01  1.8229962E+03
 2.2229767E+01  1.8216549E+03
 2.2251877E+01  1.8197048E+03
 2.2273985E+01  1.8188175E+03
 2.2296093E+01  1.8175911E+03
 2.2318201E+01  1.8174398E+03
 2.2340309E+01  1.8150571E+03
 2.2362417E+01  1.8137141E+03
 2.2384525E+01  1.8116249E+03
 2.2406633E+01  1.8100004E+03
 2.2428741E+01  1.8083979E+03
 2.2450850E+01  1.8072841E+03
 2.2472958E+01  1.8041997E+03
 2.2495066E+01  1.8022311E+03
 2.2517174E+01  1.8017308E+03
 2.2539282E+01  1.8001078E+03
 2.2561390E+01  1.7981809E+03
 2.2583498E+01  1.7975341E+03
 2.2605606E+01  1.7955366E+03
 2.2627714E+01  1.7925161E+03
 2.2649822E+01  1.7904813E+03
 2.2671930E+01  1.7886631E+03
 2.2694040E+01  1.7881600E+03
 2.2716148E+01  1.7868558E+03
 2.2738256E+01  1.7853573E+03
 2.2760365E+01  1.7842758E+03
 2.2782473E+01  1.7820692E+03
 2.2804581E+01  1.7802495E+03
 2.2826689E+01  1.7804293E+03
 2.2848797E+01  1.7774430E+03
 2.2870905E+01  1.7767255E+03
 2.2893013E+01  1.7760642E+03
 2.2915121E+01  1.7744070E+03
 2.2937229E+01  1.7715836E+03
 2.2959337E+01  1.7705790E+03
 2.2981445E+01  1.7674257E+03
 2.3003553E+01  1.7684209E+03
 2.3025661E+01  1.7668477E+03
 2.3047770E+01  1.7640320E+03
 2.3069878E+01  1.7624038E+03
 2.3091986E+01  1.7615845E+03
 2.3114094E+01  1.7582834E+03
 2.3136204E+01  1.7264502E+03
 2.3158312E+01  1.6269600E+03
 2.3180420E+01  1.5357662E+03
 2.3202528E+01  1.4708818E+03
 2.3224636E+01  1.4306852E+03
 2.3246744E+01  1.3921373E+03
 2.3268852E+01  1.3502819E+03
 2.3290960E+01  1.3110083E+03
 2.3313068E+01  1.3011987E+03
 2.3335176E+01  1.2811995E+03
 2.3357285E+01  1.2601069E+03
 2.3379393E+01  1.2384979E+03
 2.3401501E+01  1.2190948E+03
 2.3423609E+01  1.1972625E+03
 2.3445717E+01  1.1786976E+03
 2.3467825E+01  1.1617595E+03
 2.3489933E+01  1.1455182E+03
 2.3512041E+01  1.1325470E+03
 2.3534149E+01  1.1334961E+03
 2.3556257E+01  1.1254435E+03
 2.3578367E+01  1.1181450E+03
 2.3600475E+01  1.1093561E+03
 2.3622583E+01  1.1030469E+03
 2.3644691E+01  1.0933336E+03
 2.3666800E+01  1.0863561E+03
 2.3688908E+01  1.0782081E+03
 2.3711016E+01  1.0726581E+03
 2.3733124E+01  1.0652474E+03
 2.3755232E+01  1.0603524E+03
 2.3777340E+01  1.0565970E+03
 2.3799448E+01  1.0538025E+03
 2.3821556E+01  1.0517639E+03
 2.3843664E+01  1.0499283E+03
 2.3865772E+01  1.0498771E+03
 2.3887880E+01  1.0486971E+03
 2.3909988E+01  1.0494474E+03
 2.3932096E+01  1.0477485E+03
 2.3954205E+01  1.0476029E+03
 2.3976313E+01  1.0463081E+03
 2.3998421E+01  1.0461073E+03
 2.4020531E+01  1.0444259E+03
 2.4042639E+01  1.0445050E+03
 2.4064747E+01  1.0404233E+03
 2.4086855E+01  1.0383451E+03
 2.4108963E+01  1.0326425E+03
 2.4131071E+01  1.0260648E+03
 2.4153179E+01  1.0192527E+03
 2.4175287E+01  1.0083178E+03
 2.4197395E+01  9.9807355E+02
 2.4219503E+01  9.8712805E+02
 2.4241611E+01  9.7264972E+02
 2.4263720E+01  9.5926855E+02
 2.4285828E+01  9.4559717E+02
 2.4307936E+01  9.3058466E+02
 2.4330044E+01  9.1459827E+02
 2.4352152E+01  8.9729718E+02
 2.4374260E+01  8.7845850E+02
 2.4396368E+01  8.5878485E+02
 2.4418476E+01  8.3792725E+02
 2.4440584E+01  8.2585681E+02
 2.4462694E+01  8.0569965E+02
 2.4484802E+01  7.7925446E+02
 2.4506910E+01  7.5577222E+02
 2.4529018E+01  7.2185742E+02
 2.4551126E+01  6.9695416E+02
 2.4573235E+01  6.4999158E+02
 2.4595343E+01  6.0714520E+02
 2.4617451E+01  5.5638416E+02
 2.4639559E+01  5.2283380E+02
 2.4661667E+01  4.8233957E+02
 2.4683775E+01  4.2947482E+02
 2.4705883E+01  3.6213339E+02
 2.4727991E+01  2.7608627E+02
 2.4750099E+01  1.3831946E+02
 2.4772207E+01  2.3952618E+01
 2.4794315E+01  3.8673095E-02
 2.4816423E+01  0.0000000E+00
 2.4838531E+01  0.0000000E+00
 2.4860640E+01  0.0000000E+00
 2.4882748E+01  0.0000000E+00
 2.4904856E+01  0.0000000E+00
 2.4926966E+01  0.0000000E+00
 2.4949074E+01  0.0000000E+00
 2.4971182E+01  0.0000000E+00
 2.4993290E+01  0.0000000E+00
 2.5015398E+01  0.0000000E+00
 2.5037506E+01  0.0000000E+00
 2.5059614E+01  0.0000000E+00
 2.5081722E+01  0.0000000E+00
 2.5103830E+01  0.0000000E+00
 2.5125938E+01  0.0000000E+00
 2.5148046E+01  0.0000000E+00
 2.5170155E+01  0.0000000E+00
 2.5192263E+01  0.0000000E+00
 2.5214371E+01  0.0000000E+00
 2.5236479E+01  0.0000000E+00
 2.5258587E+01  0.0000000E+00
 2.5280695E+01  0.0000000E+00
 2.5302803E+01  0.0000000E+00
 2.5324911E+01  0.0000000E+00
 2.5347019E+01  0.0000000E+00
 2.5369129E+01  0.0000000E+00
 2.5391237E+01  0.0000000E+00
 2.5413345E+01  0.0000000E+00
 2.5435453E+01  0.0000000E+00
 2.5457561E+01  0.0000000E+00
 2.5479670E+01  0.0000000E+00
 2.5501778E+01  0.0000000E+00
 2.5523886E+01  0.0000000E+00
 2.5545994E+01  0.0000000E+00
 2.5568102E+01  0.0000000E+00
 2.5590210E+01  0.0000000E+00
 2.5612318E+01  0.0000000E+00
 2.5634426E+01  0.0000000E+00
 2.5656534E+01  0.0000000E+00
 2.5678642E+01  0.0000000E+00
 2.5700750E+01  0.0000000E+00
 2.5722858E+01  0.0000000E+00
 2.5744967E+01  0.0000000E+00
 2.5767075E+01  0.0000000E+00
 2.5789183E+01  0.0000000E+00
 2.5811293E+01  0.0000000E+00
 2.5833401E+01  0.0000000E+00
 2.5855509E+01  0.0000000E+00
 2.5877617E+01  0.0000000E+00
 2.5899725E+01  0.0000000E+00
 2.5921833E+01  0.0000000E+00
 2.5943941E+01  0.0000000E+00
 2.5966049E+01  0.0000000E+00
 2.5988157E+01  0.0000000E+00
 2.6010265E+01  0.0000000E+00
 2.6032373E+01  0.0000000E+00
 2.6054482E+01  0.0000000E+00
 2.6076590E+01  0.0000000E+00
 2.6098698E+01  0.0000000E+00
 2.6120806E+01  0.0000000E+00
 2.6142914E+01  0.0000000E+00
 2.6165022E+01  0.0000000E+00
 2.6187130E+01  0.0000000E+00
 2.6209238E+01  0.0000000E+00
 2.6231346E+01  0.0000000E+00
 2.6253456E+01  0.0000000E+00
 2.6275564E+01  0.0000000E+00
 2.6297672E+01  0.0000000E+00
 2.6319780E+01  0.0000000E+00
 2.6341888E+01  0.0000000E+00
 2.6363997E+01  0.0000000E+00
 2.6386105E+01  0.0000000E+00
 2.6408213E+01  0.0000000E+00
 2.6430321E+01  0.0000000E+00
 2.6452429E+01  0.0000000E+00
 2.6474537E+01  0.0000000E+00
 2.6496645E+01  0.0000000E+00
 2.6518753E+01  0.0000000E+00
 2.6540861E+01  0.0000000E+00
 2.6562969E+01  0.0000000E+00
 2.6585077E+01  0.0000000E+00
 2.6607185E+01  0.0000000E+00
 2.6629293E+01  0.0000000E+00
 2.6651402E+01  0.0000000E+00
 2.6673510E+01  0.0000000E+00
 2.6695620E+01  0.0000000E+00
 2.6717728E+01  0.0000000E+00
 2.6739836E+01  0.0000000E+00
 2.6761944E+01  0.0000000E+00
 2.6784052E+01  0.0000000E+00
 2.6806160E+01  0.0000000E+00
 2.6828268E+01  0.0000000E+00
 2.6850376E+01  0.0000000E+00
 2.6872484E+01  0.0000000E+00
 2.6894592E+01  0.0000000E+00
 2.6916700E+01  0.0000000E+00
 2.6938808E+01  0.0000000E+00
 2.6960917E+01  0.0000000E+00
 2.6983025E+01  0.0000000E+00
 2.7005133E+01  0.0000000E+00
 2.7027241E+01  0.0000000E+00
 2.7049349E+01  0.0000000E+00
 2.7071457E+01  0.0000000E+00
 2.7093565E+01  0.0000000E+00
 2.7115673E+01  0.0000000E+00
 2.7137783E+01  0.0000000E+00
 2.7159891E+01  0.0000000E+00
 2.7181999E+01  0.0000000E+00
 2.7204107E+01  0.0000000E+00
 2.7226215E+01  0.0000000E+00
 2.7248323E+01  0.0000000E+00
 2.7270432E+01  0.0000000E+00
 2.7292540E+01  0.0000000E+00
 2.7314648E+01  0.0000000E+00
 2.7336756E+01  0.0000000E+00
 2.7358864E+01  0.0000000E+00
 2.7380972E+01  0.0000000E+00
 2.7403080E+01  0.0000000E+00
 2.7425188E+01  0.0000000E+00
 2.7447296E+01  0.0000000E+00
 2.7469404E+01  0.0000000E+00
 2.7491512E+01  0.0000000E+00
 2.7513620E+01  0.0000000E+00
 2.7535728E+01  0.0000000E+00
 2.7557837E+01  0.0000000E+00
 2.7579947E+01  0.0000000E+00
 2.7602055E+01  0.0000000E+00
 2.7624163E+01  0.0000000E+00
 2.7646271E+01  0.0000000E+00
 2.7668379E+01  0.0000000E+00
 2.7690487E+01  0.0000000E+00
 2.7712595E+01  0.0000000E+00
 2.7734703E+01  0.0000000E+00
 2.7756811E+01  0.0000000E+00
 2.7778919E+01  0.0000000E+00
 2.7801027E+01  0.0000000E+00
 2.7823135E+01  0.0000000E+00
 2.7845243E+01  0.0000000E+00
 2.7867352E+01  0.0000000E+00
 2.7889460E+01  0.0000000E+00
 2.7911568E+01  0.0000000E+00
 2.7933676E+01  0.0000000E+00
 2.7955784E+01  0.0000000E+00
 2.7977892E+01  0.0000000E+00
 2.8000000E+01  0.0000000E+00
 2.8022110E+01  0.0000000E+00
 2.8044218E+01  0.0000000E+00
 2.8066326E+01  0.0000000E+00
 2.8088434E+01  0.0000000E+00
 2.8110542E+01  0.0000000E+00
 2.8132650E+01  0.0000000E+00
 2.8154758E+01  0.0000000E+00
 2.8176867E+01  0.0000000E+00
 2.8198975E+01  0.0000000E+00
 2.8221083E+01  0.0000000E+00
 2.8243191E+01  0.0000000E+00
 2.8265299E+01  0.0000000E+00
 2.8287407E+01  0.0000000E+00
 2.8309515E+01  0.0000000E+00
 2.8331623E+01  0.0000000E+00
 2.8353731E+01  0.0000000E+00
 2.8375839E+01  0.0000000E+00
 2.8397947E+01  0.0000000E+00
 2.8420055E+01  0.0000000E+00
 2.8442163E+01  0.0000000E+00
 2.8464272E+01  0.0000000E+00
 2.8486382E+01  0.0000000E+00
 2.8508490E+01  0.0000000E+00
 2.8530598E+01  0.0000000E+00
 2.8552706E+01  0.0000000E+00
 2.8574814E+01  0.0000000E+00
 2.8596922E+01  0.0000000E+00
 2.8619030E+01  0.0000000E+00
 2.8641138E+01  0.0000000E+00
 2.8663246E+01  0.0000000E+00
 2.8685354E+01  0.0000000E+00
 2.8707462E+01  0.0000000E+00
 2.8729570E+01  0.0000000E+00
 2.8751678E+01  0.0000000E+00
 2.8773787E+01  0.0000000E+00
 2.8795895E+01  0.0000000E+00
 2.8818003E+01  0.0000000E+00
 2.8840111E+01  0.0000000E+00
 2.8862219E+01  0.0000000E+00
 2.8884327E+01  0.0000000E+00
 2.8906435E+01  0.0000000E+00
 2.8928545E+01  0.0000000E+00
 2.8950653E+01  0.0000000E+00
 2.8972761E+01  0.0000000E+00
 2.8994869E+01  0.0000000E+00
 2.9016977E+01  0.0000000E+00
 2.9039085E+01  0.0000000E+00
 2.9061193E+01  0.0000000E+00
 2.9083302E+01  0.0000000E+00
 2.9105410E+01  0.0000000E+00
 2.9127518E+01  0.0000000E+00
 2.9149626E+01  0.0000000E+00
 2.9171734E+01  0.0000000E+00
 2.9193842E+01  0.0000000E+00
 2.9215950E+01  0.0000000E+00
 2.9238058E+01  0.0000000E+00
 2.9260166E+01  0.0000000E+00
 2.9282274E+01  0.0000000E+00
 2.9304382E+01  0.0000000E+00
 2.9326490E+01  0.0000000E+00
 2.9348598E+01  0.0000000E+00
 2.9370708E+01  0.0000000E+00
 2.9392817E+01  0.0000000E+00
 2.9414925E+01  0.0000000E+00
 2.9437033E+01  0.0000000E+00
 2.9459141E+01  0.0000000E+00
 2.9481249E+01  0.0000000E+00
 2.9503357E+01  0.0000000E+00
 2.9525465E+01  0.0000000E+00
 2.9547573E+01  0.0000000E+00
 2.9569681E+01  0.0000000E+00
 2.9591789E+01  0.0000000E+00
 2.9613897E+01  0.0000000E+00
 2.9636005E+01  0.0000000E+00
 2.9658113E+01  0.0000000E+00
 2.9680222E+01  0.0000000E+00
 2.9702330E+01  0.0000000E+00
 2.9724438E+01  0.0000000E+00
 2.9746546E+01  0.0000000E+00
 2.9768654E+01  0.0000000E+00
 2.9790762E+01  0.0000000E+00
 2.9812872E+01  0.0000000E+00
 2.9834980E+01  0.0000000E+00
 2.9857088E+01  0.0000000E+00
 2.9879196E+01  0.0000000E+00
 2.9901304E+01  0.0000000E+00
 2.9923412E+01  0.0000000E+00
 2.9945520E+01  0.0000000E+00
 2.9967628E+01  0.0000000E+00
 2.9989737E+01  0.0000000E+00
 3.0011845E+01  0.0000000E+00
 3.0033953E+01  0.0000000E+00
 3.0056061E+01  0.0000000E+00
 3.0078169E+01  0.0000000E+00
 3.0100277E+01  0.0000000E+00
 3.0122385E+01  0.0000000E+00
 3.0144493E+01  0.0000000E+00
 3.0166601E+01  0.0000000E+00
 3.0188709E+01  0.0000000E+00
 3.0210817E+01  0.0000000E+00
 3.0232925E+01  0.0000000E+00
 3.0255035E+01  0.0000000E+00
 3.0277143E+01  0.0000000E+00
 3.0299252E+01  0.0000000E+00
 3.0321360E+01  0.0000000E+00
 3.0343468E+01  0.0000000E+00
 3.0365576E+01  0.0000000E+00
 3.0387684E+01  0.0000000E+00
 3.0409792E+01  0.0000000E+00
 3.0431900E+01  0.0000000E+00
 3.0454008E+01  0.0000000E+00
 3.0476116E+01  0.0000000E+00
 3.0498224E+01  0.0000000E+00
 3.0520332E+01  0.0000000E+00
 3.0542440E+01  0.0000000E+00
 3.0564548E+01  0.0000000E+00
 3.0586657E+01  0.0000000E+00
 3.0608765E+01  0.0000000E+00
 3.0630873E+01  0.0000000E+00
 3.0652981E+01  0.0000000E+00
 3.0675089E+01  0.0000000E+00
 3.0697199E+01  0.0000000E+00
 3.0719307E+01  0.0000000E+00
 3.0741415E+01  0.0000000E+00
 3.0763523E+01  0.0000000E+00
 3.0785631E+01  0.0000000E+00
 3.0807739E+01  0.0000000E+00
 3.0829847E+01  0.0000000E+00
 3.0851955E+01  0.0000000E+00
 3.0874063E+01  0.0000000E+00
 3.0896172E+01  0.0000000E+00
 3.0918280E+01  0.0000000E+00
 3.0940388E+01  0.0000000E+00
 3.0962496E+01  0.0000000E+00
 3.0984604E+01  0.0000000E+00
 3.1006712E+01  0.0000000E+00
 3.1028820E+01  0.0000000E+00
 3.1050928E+01  0.0000000E+00
 3.1073036E+01  0.0000000E+00
 3.1095144E+01  0.0000000E+00
 3.1117252E+01  0.0000000E+00
 3.1139362E+01  0.0000000E+00
 3.1161470E+01  0.0000000E+00
 3.1183578E+01  0.0000000E+00
 3.1205687E+01  0.0000000E+00
 3.1227795E+01  0.0000000E+00
 3.1249903E+01  0.0000000E+00
 3.1272011E+01  0.0000000E+00
 3.1294119E+01  0.0000000E+00
 3.1316227E+01  0.0000000E+00
 3.1338335E+01  0.0000000E+00
 3.1360443E+01  0.0000000E+00
 3.1382551E+01  0.0000000E+00
 3.1404659E+01  0.0000000E+00
 3.1426767E+01  0.0000000E+00
 3.1448875E+01  0.0000000E+00
 3.1470984E+01  0.0000000E+00
 3.1493092E+01  0.0000000E+00
 3.1515200E+01  0.0000000E+00
 3.1537308E+01  0.0000000E+00
 3.1559416E+01  0.0000000E+00
 3.1581526E+01  0.0000000E+00
 3.1603634E+01  0.0000000E+00
 3.1625742E+01  0.0000000E+00
 3.1647850E+01  0.0000000E+00
 3.1669958E+01  0.0000000E+00
 3.1692066E+01  0.0000000E+00
 3.1714174E+01  0.0000000E+00
 3.1736282E+01  0.0000000E+00
 3.1758390E+01  0.0000000E+00
 3.1780499E+01  0.0000000E+00
 3.1802607E+01  0.0000000E+00
 3.1824715E+01  0.0000000E+00
 3.1846823E+01  0.0000000E+00
 3.1868931E+01  0.0000000E+00
 3.1891039E+01  0.0000000E+00
 3.1913147E+01  0.0000000E+00
 3.1935255E+01  0.0000000E+00
 3.1957363E+01  0.0000000E+00
 3.1979471E+01  0.0000000E+00
 3.2001579E+01  0.0000000E+00
 3.2023689E+01  0.0000000E+00
 3.2045795E+01  0.0000000E+00
 3.2067905E+01  0.0000000E+00
 3.2090012E+01  0.0000000E+00
 3.2112122E+01  0.0000000E+00
 3.2134228E+01  0.0000000E+00
 3.2156338E+01  0.0000000E+00
 3.2178444E+01  0.0000000E+00
 3.2200554E+01  0.0000000E+00
 3.2222660E+01  0.0000000E+00
 3.2244770E+01  0.0000000E+00
 3.2266880E+01  0.0000000E+00
 3.2288986E+01  0.0000000E+00
 3.2311096E+01  0.0000000E+00
 3.2333202E+01  0.0000000E+00
 3.2355312E+01  0.0000000E+00
 3.2377419E+01  0.0000000E+00
 3.2399529E+01  0.0000000E+00
 3.2421635E+01  0.0000000E+00
 3.2443745E+01  0.0000000E+00
 3.2465851E+01  0.0000000E+00
 3.2487961E+01  0.0000000E+00
 3.2510067E+01  0.0000000E+00
 3.2532177E+01  0.0000000E+00
 3.2554283E+01  0.0000000E+00
 3.2576393E+01  0.0000000E+00
 3.2598499E+01  0.0000000E+00
 3.2620609E+01  0.0000000E+00
 3.2642715E+01  0.0000000E+00
 3.2664825E+01  0.0000000E+00
 3.2686932E+01  0.0000000E+00
 3.2709042E+01  0.0000000E+00
 3.2731152E+01  0.0000000E+00
