D:\DATA\UserData\CuiTian20190403\\CWH\BA\BA_11.tif: 2-theta Scan
2-Theta Angle (Degrees)
Intensity
       1481
 1.1054026E-02  6.8904198E+01
 3.3162076E-02  6.3080517E+01
 5.5270128E-02  6.0157669E+01
 7.7378176E-02  5.8166553E+01
 9.9486232E-02  5.3092037E+01
 1.2159428E-01  5.0414116E+01
 1.4370233E-01  4.9281605E+01
 1.6581038E-01  4.7867599E+01
 1.8791844E-01  4.6315960E+01
 2.1002649E-01  4.6078087E+01
 2.3213454E-01  4.5470619E+01
 2.5424260E-01  4.5864815E+01
 2.7635065E-01  4.5026981E+01
 2.9845870E-01  4.5167187E+01
 3.2056674E-01  4.5364223E+01
 3.4267479E-01  4.3941284E+01
 3.6478284E-01  4.2810532E+01
 3.8689089E-01  4.2163502E+01
 4.0899894E-01  4.2319496E+01
 4.3110698E-01  4.0953960E+01
 4.5321503E-01  4.0663918E+01
 4.7532311E-01  4.0784397E+01
 4.9743116E-01  4.0328049E+01
 5.1953918E-01  4.0162491E+01
 5.4164726E-01  4.0101994E+01
 5.6375527E-01  4.0175167E+01
 5.8586335E-01  4.0280704E+01
 6.0797143E-01  4.0563366E+01
 6.3007945E-01  4.0914330E+01
 6.5218753E-01  4.0770218E+01
 6.7429554E-01  4.0521957E+01
 6.9640362E-01  4.1330532E+01
 7.1851164E-01  4.1832520E+01
 7.4061972E-01  4.1977055E+01
 7.6272774E-01  4.1035912E+01
 7.8483582E-01  4.0101490E+01
 8.0694389E-01  3.9130989E+01
 8.2905191E-01  3.8850616E+01
 8.5115999E-01  3.9075924E+01
 8.7326801E-01  4.0099667E+01
 8.9537609E-01  4.0887791E+01
 9.1748410E-01  4.1040211E+01
 9.3959218E-01  4.1093811E+01
 9.6170020E-01  4.0787270E+01
 9.8380828E-01  4.0675678E+01
 1.0059164E+00  4.1033852E+01
 1.0280243E+00  4.0947948E+01
 1.0501324E+00  4.0535229E+01
 1.0722405E+00  4.0718483E+01
 1.0943485E+00  4.1231594E+01
 1.1164566E+00  4.1350334E+01
 1.1385646E+00  4.1241943E+01
 1.1606727E+00  4.1517929E+01
 1.1827807E+00  4.1616524E+01
 1.2048888E+00  4.1855206E+01
 1.2269968E+00  4.2140976E+01
 1.2491049E+00  4.2105789E+01
 1.2712129E+00  4.1804272E+01
 1.2933210E+00  4.2080830E+01
 1.3154291E+00  4.2737659E+01
 1.3375371E+00  4.3047031E+01
 1.3596451E+00  4.2753284E+01
 1.3817532E+00  4.2838219E+01
 1.4038613E+00  4.3147434E+01
 1.4259692E+00  4.2872131E+01
 1.4480773E+00  4.3129959E+01
 1.4701854E+00  4.3316917E+01
 1.4922935E+00  4.3947811E+01
 1.5144016E+00  4.3956028E+01
 1.5365095E+00  4.4190048E+01
 1.5586176E+00  4.4658730E+01
 1.5807257E+00  4.4827766E+01
 1.6028337E+00  4.4604862E+01
 1.6249417E+00  4.4514526E+01
 1.6470498E+00  4.4979630E+01
 1.6691579E+00  4.5325008E+01
 1.6912659E+00  4.5603214E+01
 1.7133739E+00  4.6202084E+01
 1.7354820E+00  4.6446678E+01
 1.7575901E+00  4.6746540E+01
 1.7796981E+00  4.7672390E+01
 1.8018062E+00  4.9181194E+01
 1.8239142E+00  5.0473694E+01
 1.8460222E+00  5.2010509E+01
 1.8681303E+00  5.5782356E+01
 1.8902384E+00  6.5171059E+01
 1.9123464E+00  8.4564209E+01
 1.9344544E+00  1.1631925E+02
 1.9565625E+00  1.5499431E+02
 1.9786706E+00  1.9467616E+02
 2.0007787E+00  2.3275648E+02
 2.0228868E+00  2.6767944E+02
 2.0449948E+00  3.0230463E+02
 2.0671027E+00  3.3806006E+02
 2.0892107E+00  3.7984515E+02
 2.1113188E+00  4.2674796E+02
 2.1334269E+00  4.7746689E+02
 2.1555350E+00  5.3253687E+02
 2.1776431E+00  5.8716760E+02
 2.1997511E+00  6.3304785E+02
 2.2218592E+00  6.7035553E+02
 2.2439673E+00  7.0267126E+02
 2.2660751E+00  7.3113068E+02
 2.2881832E+00  7.6135791E+02
 2.3102913E+00  7.8813184E+02
 2.3323994E+00  8.1387018E+02
 2.3545074E+00  8.4047101E+02
 2.3766155E+00  8.6759601E+02
 2.3987236E+00  8.9510834E+02
 2.4208317E+00  9.2035846E+02
 2.4429398E+00  9.4462048E+02
 2.4650476E+00  9.6685193E+02
 2.4871557E+00  9.9053357E+02
 2.5092638E+00  1.0123506E+03
 2.5313718E+00  1.0324871E+03
 2.5534799E+00  1.0498435E+03
 2.5755880E+00  1.0697279E+03
 2.5976961E+00  1.0917274E+03
 2.6198041E+00  1.1128235E+03
 2.6419122E+00  1.1297614E+03
 2.6640201E+00  1.1462992E+03
 2.6861281E+00  1.1673434E+03
 2.7082362E+00  1.1872682E+03
 2.7303443E+00  1.2026301E+03
 2.7524524E+00  1.2169813E+03
 2.7745605E+00  1.2337540E+03
 2.7966685E+00  1.2523026E+03
 2.8187766E+00  1.2681570E+03
 2.8408844E+00  1.2844998E+03
 2.8629925E+00  1.2988184E+03
 2.8851006E+00  1.3135891E+03
 2.9072087E+00  1.3317015E+03
 2.9293168E+00  1.3480111E+03
 2.9514248E+00  1.3602986E+03
 2.9735329E+00  1.3729644E+03
 2.9956410E+00  1.3870806E+03
 3.0177491E+00  1.3982721E+03
 3.0398569E+00  1.4094410E+03
 3.0619650E+00  1.4215262E+03
 3.0840731E+00  1.4329547E+03
 3.1061811E+00  1.4443081E+03
 3.1282892E+00  1.4543243E+03
 3.1503973E+00  1.4657316E+03
 3.1725054E+00  1.4753749E+03
 3.1946135E+00  1.4862202E+03
 3.2167215E+00  1.4963621E+03
 3.2388294E+00  1.5044427E+03
 3.2609375E+00  1.5157965E+03
 3.2830455E+00  1.5259492E+03
 3.3051536E+00  1.5353429E+03
 3.3272617E+00  1.5437751E+03
 3.3493698E+00  1.5509741E+03
 3.3714778E+00  1.5597234E+03
 3.3935859E+00  1.5681682E+03
 3.4156940E+00  1.5758959E+03
 3.4378018E+00  1.5872980E+03
 3.4599099E+00  1.6128621E+03
 3.4820180E+00  1.6522542E+03
 3.5041261E+00  1.6379327E+03
 3.5262341E+00  1.6170868E+03
 3.5483422E+00  1.6242070E+03
 3.5704503E+00  1.6300985E+03
 3.5925584E+00  1.6373352E+03
 3.6146665E+00  1.6454697E+03
 3.6367743E+00  1.6537639E+03
 3.6588824E+00  1.6615763E+03
 3.6809905E+00  1.6665809E+03
 3.7030985E+00  1.6715546E+03
 3.7252066E+00  1.6773689E+03
 3.7473147E+00  1.6814979E+03
 3.7694228E+00  1.6858220E+03
 3.7915308E+00  1.6912170E+03
 3.8136389E+00  1.6964467E+03
 3.8357468E+00  1.7019304E+03
 3.8578548E+00  1.7081885E+03
 3.8799629E+00  1.7143715E+03
 3.9020710E+00  1.7174446E+03
 3.9241791E+00  1.7195409E+03
 3.9462872E+00  1.7237524E+03
 3.9683952E+00  1.7279612E+03
 3.9905033E+00  1.7325392E+03
 4.0126114E+00  1.7364647E+03
 4.0347195E+00  1.7404624E+03
 4.0568275E+00  1.7440337E+03
 4.0789356E+00  1.7487262E+03
 4.1010437E+00  1.7512415E+03
 4.1231513E+00  1.7558857E+03
 4.1452594E+00  1.7606401E+03
 4.1673675E+00  1.7660886E+03
 4.1894755E+00  1.7700854E+03
 4.2115836E+00  1.7718140E+03
 4.2336917E+00  1.7727870E+03
 4.2557998E+00  1.7725479E+03
 4.2779078E+00  1.7736228E+03
 4.3000159E+00  1.7773625E+03
 4.3221240E+00  1.7831882E+03
 4.3442321E+00  1.7850127E+03
 4.3663402E+00  1.7856442E+03
 4.3884482E+00  1.7890325E+03
 4.4105563E+00  1.7936178E+03
 4.4326644E+00  1.7945153E+03
 4.4547725E+00  1.7933344E+03
 4.4768806E+00  1.7959567E+03
 4.4989886E+00  1.7970394E+03
 4.5210962E+00  1.7970708E+03
 4.5432043E+00  1.7985370E+03
 4.5653124E+00  1.8023917E+03
 4.5874205E+00  1.8032142E+03
 4.6095285E+00  1.8029946E+03
 4.6316366E+00  1.8044137E+03
 4.6537447E+00  1.8050050E+03
 4.6758528E+00  1.8045245E+03
 4.6979609E+00  1.8061808E+03
 4.7200689E+00  1.8087454E+03
 4.7421770E+00  1.8108535E+03
 4.7642851E+00  1.8121672E+03
 4.7863932E+00  1.8114722E+03
 4.8085012E+00  1.8115991E+03
 4.8306093E+00  1.8133273E+03
 4.8527174E+00  1.8130209E+03
 4.8748255E+00  1.8137839E+03
 4.8969331E+00  1.8156206E+03
 4.9190412E+00  1.8136754E+03
 4.9411492E+00  1.8151713E+03
 4.9632573E+00  1.8201317E+03
 4.9853654E+00  1.8205421E+03
 5.0074735E+00  1.8171664E+03
 5.0295815E+00  1.8155811E+03
 5.0516896E+00  1.8178754E+03
 5.0737977E+00  1.8178341E+03
 5.0959058E+00  1.8160953E+03
 5.1180139E+00  1.8162073E+03
 5.1401219E+00  1.8179803E+03
 5.1622300E+00  1.8172504E+03
 5.1843381E+00  1.8179120E+03
 5.2064462E+00  1.8174374E+03
 5.2285542E+00  1.8167096E+03
 5.2506623E+00  1.8159883E+03
 5.2727704E+00  1.8142778E+03
 5.2948780E+00  1.8140020E+03
 5.3169861E+00  1.8141798E+03
 5.3390942E+00  1.8125083E+03
 5.3612022E+00  1.8120552E+03
 5.3833103E+00  1.8127383E+03
 5.4054184E+00  1.8148955E+03
 5.4275265E+00  1.8136578E+03
 5.4496346E+00  1.8119817E+03
 5.4717426E+00  1.8126798E+03
 5.4938507E+00  1.8122246E+03
 5.5159588E+00  1.8110334E+03
 5.5380669E+00  1.8096259E+03
 5.5601749E+00  1.8098282E+03
 5.5822830E+00  1.8110187E+03
 5.6043911E+00  1.8116826E+03
 5.6264992E+00  1.8107343E+03
 5.6486073E+00  1.8090006E+03
 5.6707153E+00  1.8068068E+03
 5.6928229E+00  1.8079481E+03
 5.7149310E+00  1.8072634E+03
 5.7370391E+00  1.8079147E+03
 5.7591472E+00  1.8072223E+03
 5.7812552E+00  1.8064012E+03
 5.8033633E+00  1.8070575E+03
 5.8254714E+00  1.8069194E+03
 5.8475795E+00  1.8074009E+03
 5.8696876E+00  1.8050465E+03
 5.8917956E+00  1.8036262E+03
 5.9139037E+00  1.8036127E+03
 5.9360118E+00  1.8003893E+03
 5.9581199E+00  1.7987007E+03
 5.9802279E+00  1.8001683E+03
 6.0023360E+00  1.8005873E+03
 6.0244441E+00  1.8003126E+03
 6.0465522E+00  1.8003201E+03
 6.0686603E+00  1.8014988E+03
 6.0907679E+00  1.8001089E+03
 6.1128759E+00  1.7974153E+03
 6.1349840E+00  1.7973191E+03
 6.1570921E+00  1.7953629E+03
 6.1792002E+00  1.7916135E+03
 6.2013083E+00  1.7924464E+03
 6.2234163E+00  1.7920781E+03
 6.2455244E+00  1.7914688E+03
 6.2676325E+00  1.7928073E+03
 6.2897406E+00  1.7946738E+03
 6.3118486E+00  1.7931501E+03
 6.3339567E+00  1.7933918E+03
 6.3560648E+00  1.7926157E+03
 6.3781729E+00  1.7942437E+03
 6.4002810E+00  1.7970432E+03
 6.4223890E+00  1.7964574E+03
 6.4444971E+00  1.7927368E+03
 6.4666047E+00  1.7898313E+03
 6.4887128E+00  1.7877139E+03
 6.5108209E+00  1.7882970E+03
 6.5329289E+00  1.7868444E+03
 6.5550370E+00  1.7843352E+03
 6.5771451E+00  1.7855631E+03
 6.5992532E+00  1.7861344E+03
 6.6213613E+00  1.7842365E+03
 6.6434693E+00  1.7828754E+03
 6.6655774E+00  1.7803651E+03
 6.6876855E+00  1.7807549E+03
 6.7097936E+00  1.7809292E+03
 6.7319016E+00  1.7792689E+03
 6.7540097E+00  1.7770961E+03
 6.7761178E+00  1.7769160E+03
 6.7982259E+00  1.7768762E+03
 6.8203340E+00  1.7748406E+03
 6.8424420E+00  1.7755669E+03
 6.8645496E+00  1.7740477E+03
 6.8866577E+00  1.7740713E+03
 6.9087658E+00  1.7757056E+03
 6.9308739E+00  1.7758505E+03
 6.9529819E+00  1.7751578E+03
 6.9750900E+00  1.7759031E+03
 6.9971981E+00  1.7740620E+03
 7.0193062E+00  1.7732657E+03
 7.0414143E+00  1.7718562E+03
 7.0635223E+00  1.7708470E+03
 7.0856304E+00  1.7710266E+03
 7.1077385E+00  1.7693453E+03
 7.1298466E+00  1.7678296E+03
 7.1519547E+00  1.7665529E+03
 7.1740627E+00  1.7664370E+03
 7.1961708E+00  1.7674094E+03
 7.2182789E+00  1.7671500E+03
 7.2403870E+00  1.7662919E+03
 7.2624946E+00  1.7654358E+03
 7.2846026E+00  1.7640181E+03
 7.3067107E+00  1.7637314E+03
 7.3288188E+00  1.7619658E+03
 7.3509269E+00  1.7596179E+03
 7.3730350E+00  1.7583019E+03
 7.3951430E+00  1.7574351E+03
 7.4172511E+00  1.7569943E+03
 7.4393592E+00  1.7578850E+03
 7.4614673E+00  1.7576096E+03
 7.4835753E+00  1.7584581E+03
 7.5056834E+00  1.7585314E+03
 7.5277915E+00  1.7576323E+03
 7.5498996E+00  1.7563391E+03
 7.5720077E+00  1.7559082E+03
 7.5941157E+00  1.7559701E+03
 7.6162238E+00  1.7551732E+03
 7.6383314E+00  1.7540547E+03
 7.6604395E+00  1.7528827E+03
 7.6825476E+00  1.7530386E+03
 7.7046556E+00  1.7529751E+03
 7.7267637E+00  1.7520219E+03
 7.7488718E+00  1.7513070E+03
 7.7709799E+00  1.7510342E+03
 7.7930880E+00  1.7496464E+03
 7.8151960E+00  1.7490764E+03
 7.8373041E+00  1.7482141E+03
 7.8594122E+00  1.7493647E+03
 7.8815203E+00  1.7513534E+03
 7.9036283E+00  1.7492461E+03
 7.9257364E+00  1.7468738E+03
 7.9478445E+00  1.7470963E+03
 7.9699526E+00  1.7476821E+03
 7.9920607E+00  1.7474706E+03
 8.0141687E+00  1.7466178E+03
 8.0362768E+00  1.7444281E+03
 8.0583849E+00  1.7442775E+03
 8.0804930E+00  1.7456982E+03
 8.1026011E+00  1.7468843E+03
 8.1247091E+00  1.7461492E+03
 8.1468172E+00  1.7461664E+03
 8.1689253E+00  1.7465782E+03
 8.1910334E+00  1.7452355E+03
 8.2131414E+00  1.7441406E+03
 8.2352486E+00  1.7439523E+03
 8.2573566E+00  1.7457299E+03
 8.2794647E+00  1.7451694E+03
 8.3015728E+00  1.7448552E+03
 8.3236809E+00  1.7454198E+03
 8.3457890E+00  1.7455001E+03
 8.3678970E+00  1.7460525E+03
 8.3900051E+00  1.7467572E+03
 8.4121132E+00  1.7461710E+03
 8.4342213E+00  1.7461530E+03
 8.4563293E+00  1.7473704E+03
 8.4784374E+00  1.7479015E+03
 8.5005455E+00  1.7488672E+03
 8.5226536E+00  1.7532878E+03
 8.5447617E+00  1.7575969E+03
 8.5668697E+00  1.7614430E+03
 8.5889778E+00  1.7656382E+03
 8.6110859E+00  1.7704369E+03
 8.6331940E+00  1.7746071E+03
 8.6553020E+00  1.7733130E+03
 8.6774101E+00  1.7669414E+03
 8.6995182E+00  1.7608063E+03
 8.7216263E+00  1.7575364E+03
 8.7437344E+00  1.7562072E+03
 8.7658424E+00  1.7547410E+03
 8.7879505E+00  1.7520721E+03
 8.8100586E+00  1.7486224E+03
 8.8321667E+00  1.7473340E+03
 8.8542747E+00  1.7465306E+03
 8.8763828E+00  1.7464218E+03
 8.8984909E+00  1.7482993E+03
 8.9205990E+00  1.7502722E+03
 8.9427071E+00  1.7527435E+03
 8.9648151E+00  1.7567378E+03
 8.9869232E+00  1.7631699E+03
 9.0090303E+00  1.7676626E+03
 9.0311384E+00  1.7707710E+03
 9.0532465E+00  1.7721450E+03
 9.0753546E+00  1.7743807E+03
 9.0974627E+00  1.7771700E+03
 9.1195707E+00  1.7748353E+03
 9.1416788E+00  1.7727554E+03
 9.1637869E+00  1.7746891E+03
 9.1858950E+00  1.7839810E+03
 9.2080030E+00  1.7926677E+03
 9.2301111E+00  1.7919485E+03
 9.2522192E+00  1.7827950E+03
 9.2743273E+00  1.7681809E+03
 9.2964354E+00  1.7572312E+03
 9.3185434E+00  1.7509165E+03
 9.3406515E+00  1.7476831E+03
 9.3627596E+00  1.7455917E+03
 9.3848677E+00  1.7452139E+03
 9.4069757E+00  1.7481658E+03
 9.4290838E+00  1.7506564E+03
 9.4511919E+00  1.7537227E+03
 9.4733000E+00  1.7680415E+03
 9.4954081E+00  1.8318877E+03
 9.5175161E+00  1.8493250E+03
 9.5396242E+00  1.8450391E+03
 9.5617323E+00  1.7960753E+03
 9.5838404E+00  1.7592285E+03
 9.6059484E+00  1.7559141E+03
 9.6280565E+00  1.7539458E+03
 9.6501646E+00  1.7545504E+03
 9.6722727E+00  1.7560604E+03
 9.6943808E+00  1.7563999E+03
 9.7164888E+00  1.7572355E+03
 9.7385969E+00  1.7576882E+03
 9.7607050E+00  1.7580336E+03
 9.7828131E+00  1.7586688E+03
 9.8049202E+00  1.7609703E+03
 9.8270283E+00  1.7625715E+03
 9.8491364E+00  1.7650936E+03
 9.8712444E+00  1.7703898E+03
 9.8933525E+00  1.7765004E+03
 9.9154606E+00  1.7809701E+03
 9.9375687E+00  1.7868297E+03
 9.9596767E+00  1.7913331E+03
 9.9817848E+00  1.7951637E+03
 1.0003893E+01  1.7976609E+03
 1.0026001E+01  1.7966852E+03
 1.0048109E+01  1.7960770E+03
 1.0070217E+01  1.7956156E+03
 1.0092325E+01  1.7951161E+03
 1.0114433E+01  1.7935828E+03
 1.0136541E+01  1.7905219E+03
 1.0158649E+01  1.7873573E+03
 1.0180758E+01  1.7853125E+03
 1.0202866E+01  1.7848939E+03
 1.0224974E+01  1.7830283E+03
 1.0247082E+01  1.7798422E+03
 1.0269190E+01  1.7777546E+03
 1.0291298E+01  1.7770552E+03
 1.0313406E+01  1.7748990E+03
 1.0335514E+01  1.7763710E+03
 1.0357622E+01  1.7780995E+03
 1.0379730E+01  1.7772592E+03
 1.0401838E+01  1.7771075E+03
 1.0423946E+01  1.7766984E+03
 1.0446054E+01  1.7761396E+03
 1.0468163E+01  1.7780610E+03
 1.0490271E+01  1.7816693E+03
 1.0512379E+01  1.7839810E+03
 1.0534487E+01  1.7873085E+03
 1.0556595E+01  1.7953721E+03
 1.0578702E+01  1.8099689E+03
 1.0600810E+01  1.8203394E+03
 1.0622918E+01  1.8088695E+03
 1.0645026E+01  1.8015020E+03
 1.0667134E+01  1.8026233E+03
 1.0689242E+01  1.8064457E+03
 1.0711350E+01  1.8098934E+03
 1.0733459E+01  1.8146610E+03
 1.0755567E+01  1.8194758E+03
 1.0777675E+01  1.8261865E+03
 1.0799783E+01  1.8337623E+03
 1.0821891E+01  1.8449940E+03
 1.0843999E+01  1.8593580E+03
 1.0866107E+01  1.8766334E+03
 1.0888215E+01  1.8982372E+03
 1.0910323E+01  1.9266782E+03
 1.0932431E+01  1.9682844E+03
 1.0954539E+01  2.0353903E+03
 1.0976647E+01  2.1382520E+03
 1.0998755E+01  2.2520801E+03
 1.1020864E+01  2.3519402E+03
 1.1042972E+01  2.4131929E+03
 1.1065080E+01  2.4253555E+03
 1.1087188E+01  2.3891150E+03
 1.1109296E+01  2.3313247E+03
 1.1131404E+01  2.2704824E+03
 1.1153512E+01  2.2137095E+03
 1.1175620E+01  2.1675547E+03
 1.1197728E+01  2.1370190E+03
 1.1219836E+01  2.1078381E+03
 1.1241944E+01  2.0614531E+03
 1.1264052E+01  2.0022605E+03
 1.1286160E+01  1.9470905E+03
 1.1308269E+01  1.9070533E+03
 1.1330377E+01  1.8796136E+03
 1.1352485E+01  1.8597865E+03
 1.1374592E+01  1.8476019E+03
 1.1396700E+01  1.8415269E+03
 1.1418808E+01  1.8397877E+03
 1.1440916E+01  1.8375905E+03
 1.1463024E+01  1.8361421E+03
 1.1485132E+01  1.8362473E+03
 1.1507240E+01  1.8376541E+03
 1.1529348E+01  1.8405115E+03
 1.1551456E+01  1.8444608E+03
 1.1573565E+01  1.8487765E+03
 1.1595673E+01  1.8543767E+03
 1.1617781E+01  1.8598877E+03
 1.1639889E+01  1.8660452E+03
 1.1661997E+01  1.8732201E+03
 1.1684105E+01  1.8830243E+03
 1.1706213E+01  1.8920865E+03
 1.1728321E+01  1.9001393E+03
 1.1750429E+01  1.9095052E+03
 1.1772537E+01  1.9214243E+03
 1.1794645E+01  1.9279011E+03
 1.1816753E+01  1.9282704E+03
 1.1838861E+01  1.9231243E+03
 1.1860970E+01  1.9130592E+03
 1.1883078E+01  1.9013013E+03
 1.1905186E+01  1.8902145E+03
 1.1927294E+01  1.8781652E+03
 1.1949402E+01  1.8668466E+03
 1.1971510E+01  1.8598531E+03
 1.1993618E+01  1.8548940E+03
 1.2015726E+01  1.8502087E+03
 1.2037834E+01  1.8474435E+03
 1.2059942E+01  1.8436309E+03
 1.2082050E+01  1.8412169E+03
 1.2104158E+01  1.8404889E+03
 1.2126266E+01  1.8410327E+03
 1.2148374E+01  1.8412158E+03
 1.2170482E+01  1.8411438E+03
 1.2192590E+01  1.8422551E+03
 1.2214698E+01  1.8429963E+03
 1.2236806E+01  1.8451410E+03
 1.2258914E+01  1.8511385E+03
 1.2281022E+01  1.8570864E+03
 1.2303130E+01  1.8625343E+03
 1.2325238E+01  1.8683938E+03
 1.2347346E+01  1.8744366E+03
 1.2369454E+01  1.8820229E+03
 1.2391562E+01  1.8914774E+03
 1.2413671E+01  1.8991962E+03
 1.2435779E+01  1.9057391E+03
 1.2457887E+01  1.9105002E+03
 1.2479995E+01  1.9108456E+03
 1.2502103E+01  1.9099512E+03
 1.2524211E+01  1.9092373E+03
 1.2546319E+01  1.9097299E+03
 1.2568427E+01  1.9169586E+03
 1.2590535E+01  1.9346779E+03
 1.2612643E+01  1.9593606E+03
 1.2634751E+01  1.9855166E+03
 1.2656859E+01  2.0100817E+03
 1.2678967E+01  2.0392930E+03
 1.2701076E+01  2.0919048E+03
 1.2723184E+01  2.1969910E+03
 1.2745292E+01  2.3596187E+03
 1.2767400E+01  2.5404780E+03
 1.2789508E+01  2.6958948E+03
 1.2811616E+01  2.7600110E+03
 1.2833724E+01  2.7343022E+03
 1.2855832E+01  2.6314600E+03
 1.2877940E+01  2.4849482E+03
 1.2900048E+01  2.3208630E+03
 1.2922156E+01  2.1683584E+03
 1.2944263E+01  2.0527073E+03
 1.2966372E+01  1.9732307E+03
 1.2988480E+01  1.9208381E+03
 1.3010588E+01  1.8918700E+03
 1.3032696E+01  1.8774480E+03
 1.3054804E+01  1.8680950E+03
 1.3076912E+01  1.8609626E+03
 1.3099020E+01  1.8567866E+03
 1.3121128E+01  1.8543486E+03
 1.3143236E+01  1.8526125E+03
 1.3165344E+01  1.8493204E+03
 1.3187452E+01  1.8476230E+03
 1.3209560E+01  1.8469602E+03
 1.3231668E+01  1.8453942E+03
 1.3253777E+01  1.8441400E+03
 1.3275885E+01  1.8427672E+03
 1.3297993E+01  1.8412799E+03
 1.3320101E+01  1.8414700E+03
 1.3342209E+01  1.8408842E+03
 1.3364317E+01  1.8404331E+03
 1.3386425E+01  1.8413478E+03
 1.3408533E+01  1.8418019E+03
 1.3430641E+01  1.8405432E+03
 1.3452749E+01  1.8391428E+03
 1.3474857E+01  1.8377932E+03
 1.3496965E+01  1.8378724E+03
 1.3519073E+01  1.8383971E+03
 1.3541182E+01  1.8384132E+03
 1.3563290E+01  1.8377375E+03
 1.3585398E+01  1.8372317E+03
 1.3607506E+01  1.8387142E+03
 1.3629614E+01  1.8392649E+03
 1.3651722E+01  1.8384005E+03
 1.3673830E+01  1.8376862E+03
 1.3695938E+01  1.8394828E+03
 1.3718045E+01  1.8397815E+03
 1.3740153E+01  1.8406515E+03
 1.3762261E+01  1.8432822E+03
 1.3784369E+01  1.8449501E+03
 1.3806478E+01  1.8455358E+03
 1.3828586E+01  1.8447461E+03
 1.3850694E+01  1.8449626E+03
 1.3872802E+01  1.8466931E+03
 1.3894910E+01  1.8456268E+03
 1.3917018E+01  1.8450010E+03
 1.3939126E+01  1.8450610E+03
 1.3961234E+01  1.8448942E+03
 1.3983342E+01  1.8450751E+03
 1.4005450E+01  1.8447028E+03
 1.4027558E+01  1.8455576E+03
 1.4049666E+01  1.8468722E+03
 1.4071774E+01  1.8472609E+03
 1.4093883E+01  1.8475277E+03
 1.4115991E+01  1.8487952E+03
 1.4138099E+01  1.8501632E+03
 1.4160207E+01  1.8504192E+03
 1.4182315E+01  1.8521078E+03
 1.4204423E+01  1.8559761E+03
 1.4226531E+01  1.8604441E+03
 1.4248639E+01  1.8640044E+03
 1.4270747E+01  1.8682053E+03
 1.4292855E+01  1.8694867E+03
 1.4314963E+01  1.8708617E+03
 1.4337071E+01  1.8725065E+03
 1.4359179E+01  1.8708130E+03
 1.4381288E+01  1.8681082E+03
 1.4403396E+01  1.8665303E+03
 1.4425504E+01  1.8645383E+03
 1.4447612E+01  1.8611101E+03
 1.4469720E+01  1.8578608E+03
 1.4491827E+01  1.8565693E+03
 1.4513935E+01  1.8567759E+03
 1.4536043E+01  1.8567507E+03
 1.4558151E+01  1.8554569E+03
 1.4580259E+01  1.8548301E+03
 1.4602367E+01  1.8560847E+03
 1.4624475E+01  1.8573815E+03
 1.4646584E+01  1.8577463E+03
 1.4668692E+01  1.8580186E+03
 1.4690800E+01  1.8586323E+03
 1.4712908E+01  1.8586398E+03
 1.4735016E+01  1.8586665E+03
 1.4757124E+01  1.8585945E+03
 1.4779232E+01  1.8593763E+03
 1.4801340E+01  1.8597333E+03
 1.4823448E+01  1.8588357E+03
 1.4845556E+01  1.8598582E+03
 1.4867664E+01  1.8614691E+03
 1.4889772E+01  1.8614011E+03
 1.4911880E+01  1.8617549E+03
 1.4933989E+01  1.8618896E+03
 1.4956097E+01  1.8627196E+03
 1.4978205E+01  1.8628892E+03
 1.5000313E+01  1.8635421E+03
 1.5022421E+01  1.8651334E+03
 1.5044529E+01  1.8663774E+03
 1.5066637E+01  1.8680298E+03
 1.5088745E+01  1.8690968E+03
 1.5110853E+01  1.8688420E+03
 1.5132961E+01  1.8681494E+03
 1.5155069E+01  1.8680774E+03
 1.5177177E+01  1.8690513E+03
 1.5199286E+01  1.8693905E+03
 1.5221394E+01  1.8702130E+03
 1.5243502E+01  1.8698538E+03
 1.5265610E+01  1.8705996E+03
 1.5287717E+01  1.8715377E+03
 1.5309825E+01  1.8723154E+03
 1.5331933E+01  1.8732762E+03
 1.5354041E+01  1.8745504E+03
 1.5376149E+01  1.8754720E+03
 1.5398257E+01  1.8749766E+03
 1.5420365E+01  1.8758560E+03
 1.5442473E+01  1.8780541E+03
 1.5464581E+01  1.8791689E+03
 1.5486690E+01  1.8812982E+03
 1.5508798E+01  1.8840016E+03
 1.5530906E+01  1.8870549E+03
 1.5553014E+01  1.8903641E+03
 1.5575122E+01  1.8934603E+03
 1.5597230E+01  1.8959762E+03
 1.5619338E+01  1.8982354E+03
 1.5641446E+01  1.8987954E+03
 1.5663554E+01  1.8993348E+03
 1.5685662E+01  1.9007383E+03
 1.5707770E+01  1.9004230E+03
 1.5729878E+01  1.9006156E+03
 1.5751987E+01  1.9009053E+03
 1.5774095E+01  1.9001293E+03
 1.5796203E+01  1.8997644E+03
 1.5818311E+01  1.9012588E+03
 1.5840419E+01  1.9025193E+03
 1.5862527E+01  1.9036730E+03
 1.5884635E+01  1.9035039E+03
 1.5906743E+01  1.9031847E+03
 1.5928851E+01  1.9031417E+03
 1.5950959E+01  1.9026320E+03
 1.5973067E+01  1.9011852E+03
 1.5995175E+01  1.9005828E+03
 1.6017282E+01  1.9002222E+03
 1.6039391E+01  1.8980143E+03
 1.6061499E+01  1.8963508E+03
 1.6083607E+01  1.8950869E+03
 1.6105715E+01  1.8938190E+03
 1.6127823E+01  1.8935137E+03
 1.6149931E+01  1.8917034E+03
 1.6172039E+01  1.8887211E+03
 1.6194147E+01  1.8879261E+03
 1.6216255E+01  1.8859341E+03
 1.6238363E+01  1.8857856E+03
 1.6260471E+01  1.8841718E+03
 1.6282579E+01  1.8824567E+03
 1.6304688E+01  1.8823453E+03
 1.6326796E+01  1.8825282E+03
 1.6348904E+01  1.8827900E+03
 1.6371012E+01  1.8831047E+03
 1.6393120E+01  1.8834568E+03
 1.6415228E+01  1.8826719E+03
 1.6437336E+01  1.8818981E+03
 1.6459444E+01  1.8805453E+03
 1.6481552E+01  1.8807665E+03
 1.6503660E+01  1.8804785E+03
 1.6525768E+01  1.8799083E+03
 1.6547876E+01  1.8782802E+03
 1.6569984E+01  1.8765641E+03
 1.6592093E+01  1.8778401E+03
 1.6614201E+01  1.8801271E+03
 1.6636309E+01  1.8797560E+03
 1.6658417E+01  1.8789419E+03
 1.6680525E+01  1.8787368E+03
 1.6702633E+01  1.8783309E+03
 1.6724741E+01  1.8781948E+03
 1.6746849E+01  1.8776766E+03
 1.6768957E+01  1.8748503E+03
 1.6791065E+01  1.8744194E+03
 1.6813173E+01  1.8748341E+03
 1.6835281E+01  1.8747102E+03
 1.6857389E+01  1.8752408E+03
 1.6879498E+01  1.8741353E+03
 1.6901606E+01  1.8733608E+03
 1.6923714E+01  1.8728577E+03
 1.6945822E+01  1.8731127E+03
 1.6967930E+01  1.8744185E+03
 1.6990038E+01  1.8748096E+03
 1.7012146E+01  1.8751115E+03
 1.7034254E+01  1.8757451E+03
 1.7056362E+01  1.8773235E+03
 1.7078470E+01  1.8811061E+03
 1.7100578E+01  1.8871466E+03
 1.7122686E+01  1.8943403E+03
 1.7144794E+01  1.9036182E+03
 1.7166903E+01  1.9127002E+03
 1.7189011E+01  1.9209646E+03
 1.7211119E+01  1.9267020E+03
 1.7233225E+01  1.9291165E+03
 1.7255333E+01  1.9298022E+03
 1.7277441E+01  1.9261233E+03
 1.7299549E+01  1.9202545E+03
 1.7321657E+01  1.9150341E+03
 1.7343765E+01  1.9096776E+03
 1.7365873E+01  1.9031282E+03
 1.7387981E+01  1.8959407E+03
 1.7410089E+01  1.8892661E+03
 1.7432198E+01  1.8844579E+03
 1.7454306E+01  1.8808221E+03
 1.7476414E+01  1.8783372E+03
 1.7498522E+01  1.8764227E+03
 1.7520630E+01  1.8735431E+03
 1.7542738E+01  1.8704470E+03
 1.7564846E+01  1.8680032E+03
 1.7586954E+01  1.8649878E+03
 1.7609062E+01  1.8629424E+03
 1.7631170E+01  1.8628400E+03
 1.7653278E+01  1.8614254E+03
 1.7675386E+01  1.8587455E+03
 1.7697495E+01  1.8576013E+03
 1.7719603E+01  1.8582759E+03
 1.7741711E+01  1.8589117E+03
 1.7763819E+01  1.8595676E+03
 1.7785927E+01  1.8596146E+03
 1.7808035E+01  1.8601626E+03
 1.7830143E+01  1.8611619E+03
 1.7852251E+01  1.8607120E+03
 1.7874359E+01  1.8639979E+03
 1.7896467E+01  1.8698488E+03
 1.7918575E+01  1.8754010E+03
 1.7940683E+01  1.8820481E+03
 1.7962791E+01  1.8920178E+03
 1.7984900E+01  1.9046594E+03
 1.8007008E+01  1.9150938E+03
 1.8029116E+01  1.9235103E+03
 1.8051224E+01  1.9317518E+03
 1.8073332E+01  1.9386720E+03
 1.8095440E+01  1.9465023E+03
 1.8117548E+01  1.9565328E+03
 1.8139656E+01  1.9611639E+03
 1.8161764E+01  1.9537180E+03
 1.8183872E+01  1.9430187E+03
 1.8205980E+01  1.9297438E+03
 1.8228088E+01  1.9180092E+03
 1.8250196E+01  1.9098978E+03
 1.8272305E+01  1.9012505E+03
 1.8294413E+01  1.8918086E+03
 1.8316521E+01  1.8804531E+03
 1.8338629E+01  1.8645726E+03
 1.8360737E+01  1.8507993E+03
 1.8382845E+01  1.8433870E+03
 1.8404953E+01  1.8405436E+03
 1.8427061E+01  1.8408149E+03
 1.8449169E+01  1.8440608E+03
 1.8471277E+01  1.8476071E+03
 1.8493385E+01  1.8477427E+03
 1.8515493E+01  1.8466073E+03
 1.8537601E+01  1.8422424E+03
 1.8559710E+01  1.8348992E+03
 1.8581818E+01  1.8254332E+03
 1.8603926E+01  1.8171545E+03
 1.8626034E+01  1.8108707E+03
 1.8648142E+01  1.8030596E+03
 1.8670250E+01  1.7963568E+03
 1.8692358E+01  1.7907212E+03
 1.8714466E+01  1.7868213E+03
 1.8736574E+01  1.7835630E+03
 1.8758682E+01  1.7796932E+03
 1.8780790E+01  1.7764669E+03
 1.8802896E+01  1.7729727E+03
 1.8825005E+01  1.7705656E+03
 1.8847113E+01  1.7685013E+03
 1.8869221E+01  1.7653544E+03
 1.8891329E+01  1.7626055E+03
 1.8913437E+01  1.7607347E+03
 1.8935545E+01  1.7587164E+03
 1.8957653E+01  1.7558596E+03
 1.8979761E+01  1.7514042E+03
 1.9001869E+01  1.7483615E+03
 1.9023977E+01  1.7468817E+03
 1.9046085E+01  1.7450082E+03
 1.9068193E+01  1.7422311E+03
 1.9090302E+01  1.7388679E+03
 1.9112410E+01  1.7378646E+03
 1.9134518E+01  1.7372632E+03
 1.9156626E+01  1.7361511E+03
 1.9178734E+01  1.7336703E+03
 1.9200842E+01  1.7329135E+03
 1.9222950E+01  1.7327976E+03
 1.9245058E+01  1.7318926E+03
 1.9267166E+01  1.7297083E+03
 1.9289274E+01  1.7290836E+03
 1.9311382E+01  1.7280309E+03
 1.9333490E+01  1.7254702E+03
 1.9355598E+01  1.7220828E+03
 1.9377707E+01  1.7209667E+03
 1.9399815E+01  1.7199340E+03
 1.9421923E+01  1.7192985E+03
 1.9444031E+01  1.7172958E+03
 1.9466139E+01  1.7149659E+03
 1.9488247E+01  1.7134679E+03
 1.9510355E+01  1.7114822E+03
 1.9532463E+01  1.7092717E+03
 1.9554571E+01  1.7085345E+03
 1.9576679E+01  1.7081152E+03
 1.9598787E+01  1.7080647E+03
 1.9620895E+01  1.7085010E+03
 1.9643003E+01  1.7078469E+03
 1.9665112E+01  1.7037448E+03
 1.9687220E+01  1.6981969E+03
 1.9709328E+01  1.6932264E+03
 1.9731436E+01  1.6887031E+03
 1.9753544E+01  1.6857538E+03
 1.9775652E+01  1.6835604E+03
 1.9797760E+01  1.6817109E+03
 1.9819868E+01  1.6798718E+03
 1.9841976E+01  1.6784237E+03
 1.9864084E+01  1.6776906E+03
 1.9886192E+01  1.6762922E+03
 1.9908300E+01  1.6731276E+03
 1.9930408E+01  1.6710046E+03
 1.9952517E+01  1.6704413E+03
 1.9974625E+01  1.6694456E+03
 1.9996733E+01  1.6703748E+03
 2.0018841E+01  1.6708972E+03
 2.0040949E+01  1.6693149E+03
 2.0063057E+01  1.6685658E+03
 2.0085165E+01  1.6679446E+03
 2.0107273E+01  1.6665715E+03
 2.0129381E+01  1.6647003E+03
 2.0151489E+01  1.6633516E+03
 2.0173597E+01  1.6615723E+03
 2.0195705E+01  1.6593821E+03
 2.0217813E+01  1.6576940E+03
 2.0239922E+01  1.6566312E+03
 2.0262030E+01  1.6550687E+03
 2.0284138E+01  1.6545746E+03
 2.0306246E+01  1.6533265E+03
 2.0328354E+01  1.6526266E+03
 2.0350462E+01  1.6529465E+03
 2.0372568E+01  1.6531003E+03
 2.0394676E+01  1.6522971E+03
 2.0416784E+01  1.6511328E+03
 2.0438892E+01  1.6495256E+03
 2.0461000E+01  1.6482579E+03
 2.0483109E+01  1.6481852E+03
 2.0505217E+01  1.6468754E+03
 2.0527325E+01  1.6453362E+03
 2.0549433E+01  1.6443882E+03
 2.0571541E+01  1.6429832E+03
 2.0593649E+01  1.6406116E+03
 2.0615757E+01  1.6384019E+03
 2.0637865E+01  1.6355945E+03
 2.0659973E+01  1.6336647E+03
 2.0682081E+01  1.6319904E+03
 2.0704189E+01  1.6296158E+03
 2.0726297E+01  1.6275437E+03
 2.0748405E+01  1.6265583E+03
 2.0770514E+01  1.6263656E+03
 2.0792622E+01  1.6262036E+03
 2.0814730E+01  1.6257137E+03
 2.0836838E+01  1.6260063E+03
 2.0858946E+01  1.6267504E+03
 2.0881054E+01  1.6267896E+03
 2.0903162E+01  1.6291534E+03
 2.0925270E+01  1.6321353E+03
 2.0947378E+01  1.6349723E+03
 2.0969486E+01  1.6386682E+03
 2.0991594E+01  1.6455845E+03
 2.1013702E+01  1.6515662E+03
 2.1035810E+01  1.6578849E+03
 2.1057919E+01  1.6667650E+03
 2.1080027E+01  1.6762094E+03
 2.1102135E+01  1.6825737E+03
 2.1124243E+01  1.6893468E+03
 2.1146351E+01  1.6991505E+03
 2.1168459E+01  1.7090403E+03
 2.1190567E+01  1.7173098E+03
 2.1212675E+01  1.7217708E+03
 2.1234783E+01  1.7250975E+03
 2.1256891E+01  1.7252340E+03
 2.1278999E+01  1.7234720E+03
 2.1301107E+01  1.7223257E+03
 2.1323215E+01  1.7192711E+03
 2.1345324E+01  1.7140935E+03
 2.1367432E+01  1.7047527E+03
 2.1389540E+01  1.6944602E+03
 2.1411648E+01  1.6835814E+03
 2.1433756E+01  1.6746373E+03
 2.1455864E+01  1.6676830E+03
 2.1477972E+01  1.6605919E+03
 2.1500080E+01  1.6509160E+03
 2.1522188E+01  1.6406855E+03
 2.1544296E+01  1.6326244E+03
 2.1566404E+01  1.6238983E+03
 2.1588512E+01  1.6158875E+03
 2.1610620E+01  1.6071704E+03
 2.1632729E+01  1.5991489E+03
 2.1654837E+01  1.5921245E+03
 2.1676945E+01  1.5846918E+03
 2.1699053E+01  1.5779779E+03
 2.1721161E+01  1.5725801E+03
 2.1743269E+01  1.5686143E+03
 2.1765377E+01  1.5650845E+03
 2.1787485E+01  1.5621144E+03
 2.1809593E+01  1.5597487E+03
 2.1831701E+01  1.5580872E+03
 2.1853809E+01  1.5566086E+03
 2.1875917E+01  1.5537047E+03
 2.1898026E+01  1.5505063E+03
 2.1920134E+01  1.5488674E+03
 2.1942240E+01  1.5477134E+03
 2.1964348E+01  1.5459471E+03
 2.1986456E+01  1.5449160E+03
 2.2008564E+01  1.5441039E+03
 2.2030672E+01  1.5433435E+03
 2.2052780E+01  1.5427466E+03
 2.2074888E+01  1.5415112E+03
 2.2096996E+01  1.5401123E+03
 2.2119104E+01  1.5405814E+03
 2.2141212E+01  1.5404706E+03
 2.2163321E+01  1.5401415E+03
 2.2185429E+01  1.5391803E+03
 2.2207537E+01  1.5378905E+03
 2.2229645E+01  1.5370364E+03
 2.2251753E+01  1.5345366E+03
 2.2273861E+01  1.5323937E+03
 2.2295969E+01  1.5304069E+03
 2.2318077E+01  1.5289152E+03
 2.2340185E+01  1.5252460E+03
 2.2362293E+01  1.5234521E+03
 2.2384401E+01  1.5203607E+03
 2.2406509E+01  1.5181395E+03
 2.2428617E+01  1.5157599E+03
 2.2450726E+01  1.5154033E+03
 2.2472834E+01  1.5127179E+03
 2.2494942E+01  1.5100164E+03
 2.2517050E+01  1.5086788E+03
 2.2539158E+01  1.5076068E+03
 2.2561266E+01  1.5062953E+03
 2.2583374E+01  1.5054006E+03
 2.2605482E+01  1.5031466E+03
 2.2627590E+01  1.5007097E+03
 2.2649698E+01  1.4989592E+03
 2.2671806E+01  1.4974966E+03
 2.2693914E+01  1.4952732E+03
 2.2716022E+01  1.4931841E+03
 2.2738131E+01  1.4912255E+03
 2.2760239E+01  1.4894038E+03
 2.2782347E+01  1.4874438E+03
 2.2804455E+01  1.4865209E+03
 2.2826563E+01  1.4859631E+03
 2.2848671E+01  1.4832146E+03
 2.2870779E+01  1.4823853E+03
 2.2892887E+01  1.4810255E+03
 2.2914995E+01  1.4787596E+03
 2.2937103E+01  1.4772178E+03
 2.2959211E+01  1.4768641E+03
 2.2981319E+01  1.4738843E+03
 2.3003428E+01  1.4741649E+03
 2.3025536E+01  1.4727009E+03
 2.3047644E+01  1.4701222E+03
 2.3069752E+01  1.4687228E+03
 2.3091860E+01  1.4671012E+03
 2.3113968E+01  1.4636399E+03
 2.3136076E+01  1.4377524E+03
 2.3158184E+01  1.3550922E+03
 2.3180292E+01  1.2769603E+03
 2.3202400E+01  1.2220242E+03
 2.3224508E+01  1.1884722E+03
 2.3246616E+01  1.1568582E+03
 2.3268724E+01  1.1225383E+03
 2.3290833E+01  1.0897839E+03
 2.3312941E+01  1.0809084E+03
 2.3335049E+01  1.0639628E+03
 2.3357157E+01  1.0465125E+03
 2.3379265E+01  1.0281962E+03
 2.3401373E+01  1.0131412E+03
 2.3423481E+01  9.9519525E+02
 2.3445589E+01  9.8030243E+02
 2.3467697E+01  9.6604938E+02
 2.3489805E+01  9.5162866E+02
 2.3511911E+01  9.3977692E+02
 2.3534019E+01  9.4033069E+02
 2.3556128E+01  9.3464929E+02
 2.3578236E+01  9.2978094E+02
 2.3600344E+01  9.2345953E+02
 2.3622452E+01  9.1797577E+02
 2.3644560E+01  9.1025037E+02
 2.3666668E+01  9.0450433E+02
 2.3688776E+01  8.9696307E+02
 2.3710884E+01  8.9270020E+02
 2.3732992E+01  8.8661444E+02
 2.3755100E+01  8.8270978E+02
 2.3777208E+01  8.7913666E+02
 2.3799316E+01  8.7795776E+02
 2.3821424E+01  8.7674945E+02
 2.3843533E+01  8.7464984E+02
 2.3865641E+01  8.7481262E+02
 2.3887749E+01  8.7439594E+02
 2.3909857E+01  8.7535858E+02
 2.3931965E+01  8.7475830E+02
 2.3954073E+01  8.7488782E+02
 2.3976181E+01  8.7419110E+02
 2.3998289E+01  8.7410059E+02
 2.4020397E+01  8.7217041E+02
 2.4042505E+01  8.7177203E+02
 2.4064613E+01  8.6766956E+02
 2.4086721E+01  8.6565973E+02
 2.4108829E+01  8.6153955E+02
 2.4130938E+01  8.5570270E+02
 2.4153046E+01  8.5036108E+02
 2.4175154E+01  8.4154388E+02
 2.4197262E+01  8.3247241E+02
 2.4219370E+01  8.2274609E+02
 2.4241478E+01  8.1093726E+02
 2.4263586E+01  8.0024146E+02
 2.4285694E+01  7.8917090E+02
 2.4307802E+01  7.7640918E+02
 2.4329910E+01  7.6334106E+02
 2.4352018E+01  7.4896686E+02
 2.4374126E+01  7.3348865E+02
 2.4396235E+01  7.1687347E+02
 2.4418343E+01  6.9980518E+02
 2.4440451E+01  6.9009869E+02
 2.4462559E+01  6.7201764E+02
 2.4484667E+01  6.4959015E+02
 2.4506775E+01  6.2947296E+02
 2.4528883E+01  5.9994434E+02
 2.4550991E+01  5.7897382E+02
 2.4573099E+01  5.4017584E+02
 2.4595207E+01  5.0537466E+02
 2.4617315E+01  4.6331372E+02
 2.4639423E+01  4.3404816E+02
 2.4661531E+01  4.0039566E+02
 2.4683640E+01  3.5653778E+02
 2.4705748E+01  3.0057932E+02
 2.4727856E+01  2.2909181E+02
 2.4749964E+01  1.1473870E+02
 2.4772072E+01  1.9841228E+01
 2.4794180E+01  3.0567974E-02
 2.4816288E+01  0.0000000E+00
 2.4838396E+01  0.0000000E+00
 2.4860504E+01  0.0000000E+00
 2.4882612E+01  0.0000000E+00
 2.4904720E+01  0.0000000E+00
 2.4926828E+01  0.0000000E+00
 2.4948936E+01  0.0000000E+00
 2.4971045E+01  0.0000000E+00
 2.4993153E+01  0.0000000E+00
 2.5015261E+01  0.0000000E+00
 2.5037369E+01  0.0000000E+00
 2.5059477E+01  0.0000000E+00
 2.5081583E+01  0.0000000E+00
 2.5103691E+01  0.0000000E+00
 2.5125799E+01  0.0000000E+00
 2.5147907E+01  0.0000000E+00
 2.5170015E+01  0.0000000E+00
 2.5192123E+01  0.0000000E+00
 2.5214231E+01  0.0000000E+00
 2.5236340E+01  0.0000000E+00
 2.5258448E+01  0.0000000E+00
 2.5280556E+01  0.0000000E+00
 2.5302664E+01  0.0000000E+00
 2.5324772E+01  0.0000000E+00
 2.5346880E+01  0.0000000E+00
 2.5368988E+01  0.0000000E+00
 2.5391096E+01  0.0000000E+00
 2.5413204E+01  0.0000000E+00
 2.5435312E+01  0.0000000E+00
 2.5457420E+01  0.0000000E+00
 2.5479528E+01  0.0000000E+00
 2.5501637E+01  0.0000000E+00
 2.5523745E+01  0.0000000E+00
 2.5545853E+01  0.0000000E+00
 2.5567961E+01  0.0000000E+00
 2.5590069E+01  0.0000000E+00
 2.5612177E+01  0.0000000E+00
 2.5634285E+01  0.0000000E+00
 2.5656393E+01  0.0000000E+00
 2.5678501E+01  0.0000000E+00
 2.5700609E+01  0.0000000E+00
 2.5722717E+01  0.0000000E+00
 2.5744825E+01  0.0000000E+00
 2.5766933E+01  0.0000000E+00
 2.5789042E+01  0.0000000E+00
 2.5811150E+01  0.0000000E+00
 2.5833258E+01  0.0000000E+00
 2.5855366E+01  0.0000000E+00
 2.5877474E+01  0.0000000E+00
 2.5899582E+01  0.0000000E+00
 2.5921690E+01  0.0000000E+00
 2.5943798E+01  0.0000000E+00
 2.5965906E+01  0.0000000E+00
 2.5988014E+01  0.0000000E+00
 2.6010122E+01  0.0000000E+00
 2.6032230E+01  0.0000000E+00
 2.6054338E+01  0.0000000E+00
 2.6076447E+01  0.0000000E+00
 2.6098555E+01  0.0000000E+00
 2.6120663E+01  0.0000000E+00
 2.6142771E+01  0.0000000E+00
 2.6164879E+01  0.0000000E+00
 2.6186987E+01  0.0000000E+00
 2.6209095E+01  0.0000000E+00
 2.6231203E+01  0.0000000E+00
 2.6253311E+01  0.0000000E+00
 2.6275419E+01  0.0000000E+00
 2.6297527E+01  0.0000000E+00
 2.6319635E+01  0.0000000E+00
 2.6341743E+01  0.0000000E+00
 2.6363852E+01  0.0000000E+00
 2.6385960E+01  0.0000000E+00
 2.6408068E+01  0.0000000E+00
 2.6430176E+01  0.0000000E+00
 2.6452284E+01  0.0000000E+00
 2.6474392E+01  0.0000000E+00
 2.6496500E+01  0.0000000E+00
 2.6518608E+01  0.0000000E+00
 2.6540716E+01  0.0000000E+00
 2.6562824E+01  0.0000000E+00
 2.6584932E+01  0.0000000E+00
 2.6607040E+01  0.0000000E+00
 2.6629147E+01  0.0000000E+00
 2.6651255E+01  0.0000000E+00
 2.6673363E+01  0.0000000E+00
 2.6695471E+01  0.0000000E+00
 2.6717579E+01  0.0000000E+00
 2.6739687E+01  0.0000000E+00
 2.6761795E+01  0.0000000E+00
 2.6783903E+01  0.0000000E+00
 2.6806011E+01  0.0000000E+00
 2.6828119E+01  0.0000000E+00
 2.6850227E+01  0.0000000E+00
 2.6872335E+01  0.0000000E+00
 2.6894444E+01  0.0000000E+00
 2.6916552E+01  0.0000000E+00
 2.6938660E+01  0.0000000E+00
 2.6960768E+01  0.0000000E+00
 2.6982876E+01  0.0000000E+00
 2.7004984E+01  0.0000000E+00
 2.7027092E+01  0.0000000E+00
 2.7049200E+01  0.0000000E+00
 2.7071308E+01  0.0000000E+00
 2.7093416E+01  0.0000000E+00
 2.7115524E+01  0.0000000E+00
 2.7137632E+01  0.0000000E+00
 2.7159740E+01  0.0000000E+00
 2.7181849E+01  0.0000000E+00
 2.7203957E+01  0.0000000E+00
 2.7226065E+01  0.0000000E+00
 2.7248173E+01  0.0000000E+00
 2.7270281E+01  0.0000000E+00
 2.7292389E+01  0.0000000E+00
 2.7314497E+01  0.0000000E+00
 2.7336605E+01  0.0000000E+00
 2.7358713E+01  0.0000000E+00
 2.7380821E+01  0.0000000E+00
 2.7402929E+01  0.0000000E+00
 2.7425037E+01  0.0000000E+00
 2.7447145E+01  0.0000000E+00
 2.7469254E+01  0.0000000E+00
 2.7491362E+01  0.0000000E+00
 2.7513470E+01  0.0000000E+00
 2.7535578E+01  0.0000000E+00
 2.7557686E+01  0.0000000E+00
 2.7579794E+01  0.0000000E+00
 2.7601902E+01  0.0000000E+00
 2.7624010E+01  0.0000000E+00
 2.7646118E+01  0.0000000E+00
 2.7668226E+01  0.0000000E+00
 2.7690334E+01  0.0000000E+00
 2.7712442E+01  0.0000000E+00
 2.7734550E+01  0.0000000E+00
 2.7756659E+01  0.0000000E+00
 2.7778767E+01  0.0000000E+00
 2.7800875E+01  0.0000000E+00
 2.7822983E+01  0.0000000E+00
 2.7845091E+01  0.0000000E+00
 2.7867199E+01  0.0000000E+00
 2.7889307E+01  0.0000000E+00
 2.7911415E+01  0.0000000E+00
 2.7933523E+01  0.0000000E+00
 2.7955631E+01  0.0000000E+00
 2.7977739E+01  0.0000000E+00
 2.7999847E+01  0.0000000E+00
 2.8021955E+01  0.0000000E+00
 2.8044064E+01  0.0000000E+00
 2.8066172E+01  0.0000000E+00
 2.8088280E+01  0.0000000E+00
 2.8110388E+01  0.0000000E+00
 2.8132496E+01  0.0000000E+00
 2.8154604E+01  0.0000000E+00
 2.8176712E+01  0.0000000E+00
 2.8198818E+01  0.0000000E+00
 2.8220926E+01  0.0000000E+00
 2.8243034E+01  0.0000000E+00
 2.8265142E+01  0.0000000E+00
 2.8287251E+01  0.0000000E+00
 2.8309359E+01  0.0000000E+00
 2.8331467E+01  0.0000000E+00
 2.8353575E+01  0.0000000E+00
 2.8375683E+01  0.0000000E+00
 2.8397791E+01  0.0000000E+00
 2.8419899E+01  0.0000000E+00
 2.8442007E+01  0.0000000E+00
 2.8464115E+01  0.0000000E+00
 2.8486223E+01  0.0000000E+00
 2.8508331E+01  0.0000000E+00
 2.8530439E+01  0.0000000E+00
 2.8552547E+01  0.0000000E+00
 2.8574656E+01  0.0000000E+00
 2.8596764E+01  0.0000000E+00
 2.8618872E+01  0.0000000E+00
 2.8640980E+01  0.0000000E+00
 2.8663088E+01  0.0000000E+00
 2.8685196E+01  0.0000000E+00
 2.8707304E+01  0.0000000E+00
 2.8729412E+01  0.0000000E+00
 2.8751520E+01  0.0000000E+00
 2.8773628E+01  0.0000000E+00
 2.8795736E+01  0.0000000E+00
 2.8817844E+01  0.0000000E+00
 2.8839952E+01  0.0000000E+00
 2.8862061E+01  0.0000000E+00
 2.8884169E+01  0.0000000E+00
 2.8906277E+01  0.0000000E+00
 2.8928385E+01  0.0000000E+00
 2.8950493E+01  0.0000000E+00
 2.8972601E+01  0.0000000E+00
 2.8994709E+01  0.0000000E+00
 2.9016817E+01  0.0000000E+00
 2.9038925E+01  0.0000000E+00
 2.9061033E+01  0.0000000E+00
 2.9083141E+01  0.0000000E+00
 2.9105249E+01  0.0000000E+00
 2.9127357E+01  0.0000000E+00
 2.9149466E+01  0.0000000E+00
 2.9171574E+01  0.0000000E+00
 2.9193682E+01  0.0000000E+00
 2.9215790E+01  0.0000000E+00
 2.9237898E+01  0.0000000E+00
 2.9260006E+01  0.0000000E+00
 2.9282114E+01  0.0000000E+00
 2.9304222E+01  0.0000000E+00
 2.9326330E+01  0.0000000E+00
 2.9348438E+01  0.0000000E+00
 2.9370546E+01  0.0000000E+00
 2.9392654E+01  0.0000000E+00
 2.9414762E+01  0.0000000E+00
 2.9436871E+01  0.0000000E+00
 2.9458979E+01  0.0000000E+00
 2.9481087E+01  0.0000000E+00
 2.9503195E+01  0.0000000E+00
 2.9525303E+01  0.0000000E+00
 2.9547411E+01  0.0000000E+00
 2.9569519E+01  0.0000000E+00
 2.9591627E+01  0.0000000E+00
 2.9613735E+01  0.0000000E+00
 2.9635843E+01  0.0000000E+00
 2.9657951E+01  0.0000000E+00
 2.9680059E+01  0.0000000E+00
 2.9702168E+01  0.0000000E+00
 2.9724276E+01  0.0000000E+00
 2.9746384E+01  0.0000000E+00
 2.9768490E+01  0.0000000E+00
 2.9790598E+01  0.0000000E+00
 2.9812706E+01  0.0000000E+00
 2.9834814E+01  0.0000000E+00
 2.9856922E+01  0.0000000E+00
 2.9879030E+01  0.0000000E+00
 2.9901138E+01  0.0000000E+00
 2.9923246E+01  0.0000000E+00
 2.9945354E+01  0.0000000E+00
 2.9967463E+01  0.0000000E+00
 2.9989571E+01  0.0000000E+00
 3.0011679E+01  0.0000000E+00
 3.0033787E+01  0.0000000E+00
 3.0055895E+01  0.0000000E+00
 3.0078003E+01  0.0000000E+00
 3.0100111E+01  0.0000000E+00
 3.0122219E+01  0.0000000E+00
 3.0144327E+01  0.0000000E+00
 3.0166435E+01  0.0000000E+00
 3.0188543E+01  0.0000000E+00
 3.0210651E+01  0.0000000E+00
 3.0232759E+01  0.0000000E+00
 3.0254868E+01  0.0000000E+00
 3.0276976E+01  0.0000000E+00
 3.0299084E+01  0.0000000E+00
 3.0321192E+01  0.0000000E+00
 3.0343300E+01  0.0000000E+00
 3.0365408E+01  0.0000000E+00
 3.0387516E+01  0.0000000E+00
 3.0409624E+01  0.0000000E+00
 3.0431732E+01  0.0000000E+00
 3.0453840E+01  0.0000000E+00
 3.0475948E+01  0.0000000E+00
 3.0498056E+01  0.0000000E+00
 3.0520164E+01  0.0000000E+00
 3.0542273E+01  0.0000000E+00
 3.0564381E+01  0.0000000E+00
 3.0586489E+01  0.0000000E+00
 3.0608597E+01  0.0000000E+00
 3.0630705E+01  0.0000000E+00
 3.0652813E+01  0.0000000E+00
 3.0674921E+01  0.0000000E+00
 3.0697029E+01  0.0000000E+00
 3.0719137E+01  0.0000000E+00
 3.0741245E+01  0.0000000E+00
 3.0763353E+01  0.0000000E+00
 3.0785461E+01  0.0000000E+00
 3.0807570E+01  0.0000000E+00
 3.0829678E+01  0.0000000E+00
 3.0851786E+01  0.0000000E+00
 3.0873894E+01  0.0000000E+00
 3.0896002E+01  0.0000000E+00
 3.0918110E+01  0.0000000E+00
 3.0940218E+01  0.0000000E+00
 3.0962326E+01  0.0000000E+00
 3.0984434E+01  0.0000000E+00
 3.1006542E+01  0.0000000E+00
 3.1028650E+01  0.0000000E+00
 3.1050758E+01  0.0000000E+00
 3.1072866E+01  0.0000000E+00
 3.1094975E+01  0.0000000E+00
 3.1117083E+01  0.0000000E+00
 3.1139191E+01  0.0000000E+00
 3.1161299E+01  0.0000000E+00
 3.1183407E+01  0.0000000E+00
 3.1205515E+01  0.0000000E+00
 3.1227623E+01  0.0000000E+00
 3.1249731E+01  0.0000000E+00
 3.1271839E+01  0.0000000E+00
 3.1293947E+01  0.0000000E+00
 3.1316055E+01  0.0000000E+00
 3.1338161E+01  0.0000000E+00
 3.1360270E+01  0.0000000E+00
 3.1382378E+01  0.0000000E+00
 3.1404486E+01  0.0000000E+00
 3.1426594E+01  0.0000000E+00
 3.1448702E+01  0.0000000E+00
 3.1470810E+01  0.0000000E+00
 3.1492918E+01  0.0000000E+00
 3.1515026E+01  0.0000000E+00
 3.1537134E+01  0.0000000E+00
 3.1559242E+01  0.0000000E+00
 3.1581350E+01  0.0000000E+00
 3.1603458E+01  0.0000000E+00
 3.1625566E+01  0.0000000E+00
 3.1647675E+01  0.0000000E+00
 3.1669783E+01  0.0000000E+00
 3.1691891E+01  0.0000000E+00
 3.1713999E+01  0.0000000E+00
 3.1736107E+01  0.0000000E+00
 3.1758215E+01  0.0000000E+00
 3.1780323E+01  0.0000000E+00
 3.1802431E+01  0.0000000E+00
 3.1824539E+01  0.0000000E+00
 3.1846647E+01  0.0000000E+00
 3.1868755E+01  0.0000000E+00
 3.1890863E+01  0.0000000E+00
 3.1912971E+01  0.0000000E+00
 3.1935080E+01  0.0000000E+00
 3.1957188E+01  0.0000000E+00
 3.1979296E+01  0.0000000E+00
 3.2001404E+01  0.0000000E+00
 3.2023514E+01  0.0000000E+00
 3.2045620E+01  0.0000000E+00
 3.2067730E+01  0.0000000E+00
 3.2089836E+01  0.0000000E+00
 3.2111942E+01  0.0000000E+00
 3.2134052E+01  0.0000000E+00
 3.2156158E+01  0.0000000E+00
 3.2178268E+01  0.0000000E+00
 3.2200375E+01  0.0000000E+00
 3.2222485E+01  0.0000000E+00
 3.2244591E+01  0.0000000E+00
 3.2266701E+01  0.0000000E+00
 3.2288807E+01  0.0000000E+00
 3.2310917E+01  0.0000000E+00
 3.2333023E+01  0.0000000E+00
 3.2355133E+01  0.0000000E+00
 3.2377239E+01  0.0000000E+00
 3.2399349E+01  0.0000000E+00
 3.2421455E+01  0.0000000E+00
 3.2443565E+01  0.0000000E+00
 3.2465672E+01  0.0000000E+00
 3.2487782E+01  0.0000000E+00
 3.2509888E+01  0.0000000E+00
 3.2531998E+01  0.0000000E+00
 3.2554104E+01  0.0000000E+00
 3.2576214E+01  0.0000000E+00
 3.2598320E+01  0.0000000E+00
 3.2620430E+01  0.0000000E+00
 3.2642536E+01  0.0000000E+00
 3.2664646E+01  0.0000000E+00
 3.2686752E+01  0.0000000E+00
 3.2708862E+01  0.0000000E+00
 3.2730968E+01  0.0000000E+00
