D:\DATA\UserData\CuiTian20190403\CWH\BA\BA_15.tif: 2-theta Scan
2-Theta Angle (Degrees)
Intensity
       1481
 1.1054066E-02  4.7735519E+01
 3.3162199E-02  4.5390709E+01
 5.5270333E-02  4.1748260E+01
 7.7378467E-02  3.9548744E+01
 9.9486597E-02  3.8722027E+01
 1.2159473E-01  3.8907578E+01
 1.4370286E-01  3.9389721E+01
 1.6581100E-01  3.9273197E+01
 1.8791912E-01  3.9226284E+01
 2.1002726E-01  3.9259644E+01
 2.3213540E-01  3.8624672E+01
 2.5424352E-01  3.9657654E+01
 2.7635166E-01  3.9306938E+01
 2.9845980E-01  3.8749401E+01
 3.2056794E-01  3.9143105E+01
 3.4267604E-01  3.8639088E+01
 3.6478418E-01  3.8573036E+01
 3.8689232E-01  3.9462627E+01
 4.0900046E-01  4.0950565E+01
 4.3110859E-01  4.1017357E+01
 4.5321673E-01  3.9957764E+01
 4.7532487E-01  4.0044098E+01
 4.9743298E-01  4.0205490E+01
 5.1954114E-01  3.9664421E+01
 5.4164928E-01  3.9494064E+01
 5.6375736E-01  3.9445454E+01
 5.8586550E-01  3.9438137E+01
 6.0797364E-01  3.9317802E+01
 6.3008177E-01  3.9286907E+01
 6.5218991E-01  3.9394924E+01
 6.7429805E-01  3.9066120E+01
 6.9640619E-01  3.9013374E+01
 7.1851432E-01  3.9312263E+01
 7.4062246E-01  3.9177116E+01
 7.6273060E-01  3.8810856E+01
 7.8483874E-01  3.8277443E+01
 8.0694687E-01  3.8689098E+01
 8.2905495E-01  3.8602966E+01
 8.5116309E-01  3.9602058E+01
 8.7327123E-01  4.0530289E+01
 8.9537936E-01  4.0692757E+01
 9.1748750E-01  4.0164356E+01
 9.3959564E-01  3.9779850E+01
 9.6170378E-01  3.9907829E+01
 9.8381191E-01  4.0541988E+01
 1.0059201E+00  4.0785881E+01
 1.0280281E+00  4.0237675E+01
 1.0501363E+00  3.9500530E+01
 1.0722444E+00  3.9064209E+01
 1.0943526E+00  3.9168003E+01
 1.1164607E+00  3.9511398E+01
 1.1385689E+00  3.9904896E+01
 1.1606770E+00  4.0553074E+01
 1.1827852E+00  4.0718868E+01
 1.2048932E+00  4.0838947E+01
 1.2270014E+00  4.0956726E+01
 1.2491095E+00  4.1057720E+01
 1.2712176E+00  4.1342541E+01
 1.2933258E+00  4.1386074E+01
 1.3154339E+00  4.1143768E+01
 1.3375421E+00  4.1344925E+01
 1.3596501E+00  4.1398285E+01
 1.3817583E+00  4.1607033E+01
 1.4038664E+00  4.1568256E+01
 1.4259746E+00  4.1791012E+01
 1.4480827E+00  4.1649837E+01
 1.4701909E+00  4.1845116E+01
 1.4922990E+00  4.2131603E+01
 1.5144070E+00  4.2182621E+01
 1.5365152E+00  4.2364014E+01
 1.5586233E+00  4.2766628E+01
 1.5807315E+00  4.3019840E+01
 1.6028396E+00  4.3382065E+01
 1.6249478E+00  4.3554554E+01
 1.6470559E+00  4.3671635E+01
 1.6691641E+00  4.3982014E+01
 1.6912721E+00  4.4463509E+01
 1.7133803E+00  4.4859722E+01
 1.7354884E+00  4.4900246E+01
 1.7575966E+00  4.5222046E+01
 1.7797047E+00  4.5775070E+01
 1.8018128E+00  4.6298191E+01
 1.8239210E+00  4.7822834E+01
 1.8460290E+00  4.9971249E+01
 1.8681372E+00  5.3047977E+01
 1.8902453E+00  6.0386135E+01
 1.9123535E+00  7.6429825E+01
 1.9344616E+00  1.0431179E+02
 1.9565698E+00  1.3844617E+02
 1.9786779E+00  1.7346495E+02
 2.0007861E+00  2.0679755E+02
 2.0228941E+00  2.3795941E+02
 2.0450022E+00  2.6908014E+02
 2.0671103E+00  3.0090897E+02
 2.0892186E+00  3.3839102E+02
 2.1113267E+00  3.8018777E+02
 2.1334348E+00  4.2580270E+02
 2.1555429E+00  4.7584573E+02
 2.1776512E+00  5.2631036E+02
 2.1997592E+00  5.6713788E+02
 2.2218673E+00  6.0096411E+02
 2.2439754E+00  6.3027173E+02
 2.2660837E+00  6.5531250E+02
 2.2881918E+00  6.8076770E+02
 2.3102999E+00  7.0323676E+02
 2.3324080E+00  7.2442108E+02
 2.3545160E+00  7.4775128E+02
 2.3766243E+00  7.7295514E+02
 2.3987324E+00  7.9656952E+02
 2.4208405E+00  8.1931372E+02
 2.4429486E+00  8.3943616E+02
 2.4650569E+00  8.5700110E+02
 2.4871650E+00  8.7839648E+02
 2.5092731E+00  8.9657159E+02
 2.5313811E+00  9.1553632E+02
 2.5534894E+00  9.3442816E+02
 2.5755975E+00  9.5080841E+02
 2.5977056E+00  9.6789410E+02
 2.6198137E+00  9.8654163E+02
 2.6419218E+00  1.0040667E+03
 2.6640301E+00  1.0195021E+03
 2.6861382E+00  1.0358911E+03
 2.7082462E+00  1.0485399E+03
 2.7303543E+00  1.0629054E+03
 2.7524626E+00  1.0783026E+03
 2.7745707E+00  1.0943057E+03
 2.7966788E+00  1.1087511E+03
 2.8187869E+00  1.1245847E+03
 2.8408952E+00  1.1417406E+03
 2.8630033E+00  1.1519449E+03
 2.8851113E+00  1.1622047E+03
 2.9072194E+00  1.1762710E+03
 2.9293275E+00  1.1889830E+03
 2.9514358E+00  1.2003805E+03
 2.9735439E+00  1.2137814E+03
 2.9956520E+00  1.2283646E+03
 3.0177600E+00  1.2387772E+03
 3.0398684E+00  1.2472009E+03
 3.0619764E+00  1.2572964E+03
 3.0840845E+00  1.2666715E+03
 3.1061926E+00  1.2753781E+03
 3.1283009E+00  1.2821960E+03
 3.1504090E+00  1.2909099E+03
 3.1725171E+00  1.3009086E+03
 3.1946251E+00  1.3112170E+03
 3.2167332E+00  1.3216827E+03
 3.2388415E+00  1.3313958E+03
 3.2609496E+00  1.3378315E+03
 3.2830577E+00  1.3450544E+03
 3.3051658E+00  1.3553406E+03
 3.3272741E+00  1.3618318E+03
 3.3493822E+00  1.3694309E+03
 3.3714902E+00  1.3770032E+03
 3.3935983E+00  1.3820673E+03
 3.4157066E+00  1.3877041E+03
 3.4378147E+00  1.3956963E+03
 3.4599228E+00  1.4059954E+03
 3.4820309E+00  1.4114891E+03
 3.5041389E+00  1.4186578E+03
 3.5262473E+00  1.4263707E+03
 3.5483553E+00  1.4343708E+03
 3.5704634E+00  1.4440959E+03
 3.5925715E+00  1.4520780E+03
 3.6146798E+00  1.4572231E+03
 3.6367879E+00  1.4613181E+03
 3.6588960E+00  1.4666245E+03
 3.6810040E+00  1.4714430E+03
 3.7031121E+00  1.4753151E+03
 3.7252204E+00  1.4792080E+03
 3.7473285E+00  1.4805028E+03
 3.7694366E+00  1.4845443E+03
 3.7915447E+00  1.4913091E+03
 3.8136530E+00  1.4967413E+03
 3.8357611E+00  1.4987615E+03
 3.8578691E+00  1.5026176E+03
 3.8799772E+00  1.5107097E+03
 3.9020855E+00  1.5138440E+03
 3.9241936E+00  1.5157109E+03
 3.9463017E+00  1.5215463E+03
 3.9684098E+00  1.5260709E+03
 3.9905179E+00  1.5289431E+03
 4.0126262E+00  1.5323976E+03
 4.0347342E+00  1.5355261E+03
 4.0568423E+00  1.5416166E+03
 4.0789504E+00  1.5440952E+03
 4.1010585E+00  1.5457122E+03
 4.1231666E+00  1.5486675E+03
 4.1452751E+00  1.5499629E+03
 4.1673832E+00  1.5496875E+03
 4.1894913E+00  1.5524849E+03
 4.2115993E+00  1.5576691E+03
 4.2337074E+00  1.5594838E+03
 4.2558155E+00  1.5583047E+03
 4.2779236E+00  1.5601071E+03
 4.3000317E+00  1.5625369E+03
 4.3221397E+00  1.5658612E+03
 4.3442483E+00  1.5694553E+03
 4.3663564E+00  1.5727755E+03
 4.3884645E+00  1.5754384E+03
 4.4105725E+00  1.5777537E+03
 4.4326806E+00  1.5788811E+03
 4.4547887E+00  1.5805664E+03
 4.4768968E+00  1.5826008E+03
 4.4990048E+00  1.5838468E+03
 4.5211129E+00  1.5862798E+03
 4.5432215E+00  1.5877904E+03
 4.5653296E+00  1.5879008E+03
 4.5874376E+00  1.5856090E+03
 4.6095457E+00  1.5874514E+03
 4.6316538E+00  1.5894354E+03
 4.6537619E+00  1.5900592E+03
 4.6758699E+00  1.5901591E+03
 4.6979780E+00  1.5912281E+03
 4.7200866E+00  1.5916248E+03
 4.7421947E+00  1.5928429E+03
 4.7643027E+00  1.5934771E+03
 4.7864108E+00  1.5912177E+03
 4.8085189E+00  1.5905695E+03
 4.8306270E+00  1.5924490E+03
 4.8527350E+00  1.5924429E+03
 4.8748431E+00  1.5924900E+03
 4.8969512E+00  1.5926379E+03
 4.9190598E+00  1.5943555E+03
 4.9411678E+00  1.5957850E+03
 4.9632759E+00  1.5969138E+03
 4.9853840E+00  1.5978138E+03
 5.0074921E+00  1.5980697E+03
 5.0296001E+00  1.5995353E+03
 5.0517082E+00  1.5998173E+03
 5.0738163E+00  1.5998938E+03
 5.0959244E+00  1.5980690E+03
 5.1180329E+00  1.5968912E+03
 5.1401410E+00  1.5970386E+03
 5.1622491E+00  1.5975956E+03
 5.1843572E+00  1.5980308E+03
 5.2064652E+00  1.5989139E+03
 5.2285733E+00  1.5985602E+03
 5.2506814E+00  1.5961249E+03
 5.2727895E+00  1.5953051E+03
 5.2948980E+00  1.5946832E+03
 5.3170061E+00  1.5945872E+03
 5.3391142E+00  1.5965321E+03
 5.3612223E+00  1.5971470E+03
 5.3833303E+00  1.5944857E+03
 5.4054384E+00  1.5942484E+03
 5.4275465E+00  1.5947527E+03
 5.4496546E+00  1.5932269E+03
 5.4717627E+00  1.5917109E+03
 5.4938712E+00  1.5916707E+03
 5.5159793E+00  1.5908298E+03
 5.5380874E+00  1.6146654E+03
 5.5601954E+00  1.6877792E+03
 5.5823035E+00  1.6850173E+03
 5.6044116E+00  1.6124644E+03
 5.6265197E+00  1.5940284E+03
 5.6486278E+00  1.5915477E+03
 5.6707358E+00  1.5872777E+03
 5.6928444E+00  1.5873308E+03
 5.7149525E+00  1.5879261E+03
 5.7370605E+00  1.5888914E+03
 5.7591686E+00  1.5889598E+03
 5.7812767E+00  1.5876593E+03
 5.8033848E+00  1.5851085E+03
 5.8254929E+00  1.5843594E+03
 5.8476009E+00  1.5849208E+03
 5.8697095E+00  1.5841301E+03
 5.8918176E+00  1.5835515E+03
 5.9139256E+00  1.5842351E+03
 5.9360337E+00  1.5842043E+03
 5.9581418E+00  1.5843698E+03
 5.9802499E+00  1.5843938E+03
 6.0023580E+00  1.5839819E+03
 6.0244660E+00  1.5831403E+03
 6.0465741E+00  1.5822469E+03
 6.0686827E+00  1.5823745E+03
 6.0907907E+00  1.5805608E+03
 6.1128988E+00  1.5792190E+03
 6.1350069E+00  1.5794204E+03
 6.1571150E+00  1.5787024E+03
 6.1792231E+00  1.5792571E+03
 6.2013311E+00  1.5784202E+03
 6.2234392E+00  1.5767998E+03
 6.2455473E+00  1.5776447E+03
 6.2676558E+00  1.5776665E+03
 6.2897639E+00  1.5781896E+03
 6.3118720E+00  1.5768718E+03
 6.3339801E+00  1.5753076E+03
 6.3560882E+00  1.5756851E+03
 6.3781962E+00  1.5743739E+03
 6.4003043E+00  1.5727317E+03
 6.4224124E+00  1.5708677E+03
 6.4445205E+00  1.5702058E+03
 6.4666290E+00  1.5703242E+03
 6.4887371E+00  1.5695792E+03
 6.5108452E+00  1.5683949E+03
 6.5329533E+00  1.5670245E+03
 6.5550613E+00  1.5670845E+03
 6.5771694E+00  1.5679515E+03
 6.5992775E+00  1.5680382E+03
 6.6213856E+00  1.5665344E+03
 6.6434941E+00  1.5624009E+03
 6.6656022E+00  1.5618419E+03
 6.6877103E+00  1.5627871E+03
 6.7098184E+00  1.5624910E+03
 6.7319264E+00  1.5630986E+03
 6.7540345E+00  1.5633805E+03
 6.7761426E+00  1.5629309E+03
 6.7982507E+00  1.5613949E+03
 6.8203588E+00  1.5601021E+03
 6.8424673E+00  1.5590762E+03
 6.8645754E+00  1.5586084E+03
 6.8866835E+00  1.5585831E+03
 6.9087915E+00  1.5569977E+03
 6.9308996E+00  1.5565946E+03
 6.9530077E+00  1.5585801E+03
 6.9751158E+00  1.5583853E+03
 6.9972239E+00  1.5565116E+03
 7.0193319E+00  1.5566293E+03
 7.0414405E+00  1.5573217E+03
 7.0635486E+00  1.5569397E+03
 7.0856566E+00  1.5550098E+03
 7.1077647E+00  1.5532539E+03
 7.1298728E+00  1.5520996E+03
 7.1519809E+00  1.5518420E+03
 7.1740890E+00  1.5519178E+03
 7.1961970E+00  1.5517920E+03
 7.2183056E+00  1.5513507E+03
 7.2404137E+00  1.5499813E+03
 7.2625217E+00  1.5493969E+03
 7.2846298E+00  1.5490413E+03
 7.3067379E+00  1.5480284E+03
 7.3288460E+00  1.5481199E+03
 7.3509541E+00  1.5469691E+03
 7.3730621E+00  1.5453590E+03
 7.3951702E+00  1.5442361E+03
 7.4172788E+00  1.5429736E+03
 7.4393868E+00  1.5420087E+03
 7.4614949E+00  1.5413015E+03
 7.4836030E+00  1.5425605E+03
 7.5057111E+00  1.5433895E+03
 7.5278192E+00  1.5429369E+03
 7.5499272E+00  1.5419470E+03
 7.5720353E+00  1.5417865E+03
 7.5941434E+00  1.5420630E+03
 7.6162519E+00  1.5419534E+03
 7.6383600E+00  1.5410148E+03
 7.6604681E+00  1.5402354E+03
 7.6825762E+00  1.5384236E+03
 7.7046843E+00  1.5369264E+03
 7.7267923E+00  1.5375801E+03
 7.7489004E+00  1.5364136E+03
 7.7710085E+00  1.5356895E+03
 7.7931170E+00  1.5379523E+03
 7.8152251E+00  1.5376465E+03
 7.8373332E+00  1.5382480E+03
 7.8594413E+00  1.5384639E+03
 7.8815494E+00  1.5376014E+03
 7.9036574E+00  1.5375690E+03
 7.9257655E+00  1.5368143E+03
 7.9478736E+00  1.5352782E+03
 7.9699817E+00  1.5334281E+03
 7.9920902E+00  1.5331871E+03
 8.0141983E+00  1.5339639E+03
 8.0363064E+00  1.5348569E+03
 8.0584145E+00  1.5341549E+03
 8.0805225E+00  1.5333015E+03
 8.1026306E+00  1.5345793E+03
 8.1247387E+00  1.5362582E+03
 8.1468468E+00  1.5368939E+03
 8.1689548E+00  1.5364414E+03
 8.1910629E+00  1.5368934E+03
 8.2131710E+00  1.5403191E+03
 8.2352791E+00  1.5415264E+03
 8.2573872E+00  1.5442625E+03
 8.2794962E+00  1.5481165E+03
 8.3016043E+00  1.5530205E+03
 8.3237123E+00  1.5594489E+03
 8.3458204E+00  1.5635355E+03
 8.3679285E+00  1.5631057E+03
 8.3900366E+00  1.5600521E+03
 8.4121447E+00  1.5541179E+03
 8.4342527E+00  1.5473010E+03
 8.4563608E+00  1.5432734E+03
 8.4784689E+00  1.5399817E+03
 8.5005770E+00  1.5379492E+03
 8.5226851E+00  1.5374187E+03
 8.5447931E+00  1.5371722E+03
 8.5669012E+00  1.5378735E+03
 8.5890093E+00  1.5382814E+03
 8.6111174E+00  1.5363296E+03
 8.6332254E+00  1.5353708E+03
 8.6553335E+00  1.5386921E+03
 8.6774426E+00  1.5407252E+03
 8.6995506E+00  1.5409546E+03
 8.7216587E+00  1.5436698E+03
 8.7437668E+00  1.5458414E+03
 8.7658749E+00  1.5476171E+03
 8.7879829E+00  1.5518999E+03
 8.8100910E+00  1.5562896E+03
 8.8321991E+00  1.5625499E+03
 8.8543072E+00  1.5658085E+03
 8.8764153E+00  1.5620536E+03
 8.8985233E+00  1.5564344E+03
 8.9206314E+00  1.5497161E+03
 8.9427395E+00  1.5436844E+03
 8.9648476E+00  1.5406866E+03
 8.9869556E+00  1.5366938E+03
 9.0090637E+00  1.5333162E+03
 9.0311718E+00  1.5318271E+03
 9.0532808E+00  1.5323656E+03
 9.0753889E+00  1.5334054E+03
 9.0974970E+00  1.5320148E+03
 9.1196051E+00  1.5312740E+03
 9.1417131E+00  1.5319417E+03
 9.1638212E+00  1.5323463E+03
 9.1859293E+00  1.5321187E+03
 9.2080374E+00  1.5314702E+03
 9.2301455E+00  1.5323380E+03
 9.2522535E+00  1.5319708E+03
 9.2743616E+00  1.5334114E+03
 9.2964697E+00  1.5350439E+03
 9.3185778E+00  1.5342551E+03
 9.3406858E+00  1.5346396E+03
 9.3627939E+00  1.5342581E+03
 9.3849020E+00  1.5348497E+03
 9.4070101E+00  1.5367362E+03
 9.4291191E+00  1.5382528E+03
 9.4512272E+00  1.5389497E+03
 9.4733353E+00  1.5386681E+03
 9.4954433E+00  1.5393545E+03
 9.5175514E+00  1.5407583E+03
 9.5396595E+00  1.5443429E+03
 9.5617676E+00  1.5484063E+03
 9.5838757E+00  1.5515114E+03
 9.6059837E+00  1.5546080E+03
 9.6280918E+00  1.5577523E+03
 9.6501999E+00  1.5584871E+03
 9.6723080E+00  1.5557814E+03
 9.6944160E+00  1.5542002E+03
 9.7165241E+00  1.5528881E+03
 9.7386322E+00  1.5540425E+03
 9.7607403E+00  1.5542157E+03
 9.7828484E+00  1.5520632E+03
 9.8049564E+00  1.5514144E+03
 9.8270655E+00  1.5514189E+03
 9.8491735E+00  1.5541600E+03
 9.8712816E+00  1.5596838E+03
 9.8933897E+00  1.5645481E+03
 9.9154978E+00  1.5694009E+03
 9.9376059E+00  1.5728146E+03
 9.9597139E+00  1.5711736E+03
 9.9818220E+00  1.5663937E+03
 1.0003930E+01  1.5637866E+03
 1.0026038E+01  1.5624150E+03
 1.0048146E+01  1.5606456E+03
 1.0070254E+01  1.5596176E+03
 1.0092362E+01  1.5597318E+03
 1.0114470E+01  1.5592485E+03
 1.0136579E+01  1.5583638E+03
 1.0158687E+01  1.5604742E+03
 1.0180795E+01  1.5629205E+03
 1.0202904E+01  1.5642642E+03
 1.0225012E+01  1.5662424E+03
 1.0247120E+01  1.5676732E+03
 1.0269228E+01  1.5705916E+03
 1.0291336E+01  1.5750723E+03
 1.0313444E+01  1.5799376E+03
 1.0335552E+01  1.5834501E+03
 1.0357660E+01  1.5885599E+03
 1.0379768E+01  1.5964698E+03
 1.0401876E+01  1.6059700E+03
 1.0423985E+01  1.6156942E+03
 1.0446093E+01  1.6280941E+03
 1.0468201E+01  1.6478123E+03
 1.0490309E+01  1.6714318E+03
 1.0512417E+01  1.7014232E+03
 1.0534525E+01  1.7368195E+03
 1.0556633E+01  1.7738530E+03
 1.0578741E+01  1.8037823E+03
 1.0600850E+01  1.8238187E+03
 1.0622958E+01  1.8380211E+03
 1.0645066E+01  1.8516088E+03
 1.0667174E+01  1.8684865E+03
 1.0689282E+01  1.8809039E+03
 1.0711390E+01  1.8795790E+03
 1.0733499E+01  1.8680284E+03
 1.0755607E+01  1.8530316E+03
 1.0777715E+01  1.8342733E+03
 1.0799823E+01  1.8052424E+03
 1.0821931E+01  1.7696927E+03
 1.0844039E+01  1.7317954E+03
 1.0866147E+01  1.6979227E+03
 1.0888255E+01  1.6711353E+03
 1.0910363E+01  1.6510310E+03
 1.0932471E+01  1.6371819E+03
 1.0954579E+01  1.6283647E+03
 1.0976688E+01  1.6218654E+03
 1.0998796E+01  1.6160522E+03
 1.1020905E+01  1.6118613E+03
 1.1043013E+01  1.6100895E+03
 1.1065121E+01  1.6092294E+03
 1.1087229E+01  1.6088185E+03
 1.1109337E+01  1.6084816E+03
 1.1131445E+01  1.6100159E+03
 1.1153553E+01  1.6130352E+03
 1.1175661E+01  1.6129829E+03
 1.1197769E+01  1.6124602E+03
 1.1219877E+01  1.6120190E+03
 1.1241985E+01  1.6119585E+03
 1.1264093E+01  1.6140768E+03
 1.1286201E+01  1.6168840E+03
 1.1308310E+01  1.6175399E+03
 1.1330418E+01  1.6171705E+03
 1.1352527E+01  1.6165808E+03
 1.1374635E+01  1.6188347E+03
 1.1396743E+01  1.6215516E+03
 1.1418851E+01  1.6258370E+03
 1.1440959E+01  1.6332041E+03
 1.1463067E+01  1.6423306E+03
 1.1485175E+01  1.6532855E+03
 1.1507283E+01  1.6621193E+03
 1.1529391E+01  1.6673834E+03
 1.1551499E+01  1.6699957E+03
 1.1573607E+01  1.6665392E+03
 1.1595716E+01  1.6601399E+03
 1.1617824E+01  1.6516851E+03
 1.1639932E+01  1.6433257E+03
 1.1662040E+01  1.6381920E+03
 1.1684148E+01  1.6372791E+03
 1.1706256E+01  1.6364283E+03
 1.1728364E+01  1.6356633E+03
 1.1750473E+01  1.6349407E+03
 1.1772581E+01  1.6336034E+03
 1.1794689E+01  1.6325599E+03
 1.1816797E+01  1.6301144E+03
 1.1838905E+01  1.6259266E+03
 1.1861013E+01  1.6202961E+03
 1.1883121E+01  1.6167356E+03
 1.1905230E+01  1.6160105E+03
 1.1927338E+01  1.6147449E+03
 1.1949446E+01  1.6141108E+03
 1.1971554E+01  1.6147764E+03
 1.1993662E+01  1.6154282E+03
 1.2015770E+01  1.6164193E+03
 1.2037878E+01  1.6180294E+03
 1.2059986E+01  1.6208523E+03
 1.2082094E+01  1.6255649E+03
 1.2104202E+01  1.6327245E+03
 1.2126311E+01  1.6393477E+03
 1.2148419E+01  1.6484418E+03
 1.2170527E+01  1.6608749E+03
 1.2192636E+01  1.6773679E+03
 1.2214744E+01  1.6936610E+03
 1.2236852E+01  1.7088951E+03
 1.2258960E+01  1.7251587E+03
 1.2281068E+01  1.7429120E+03
 1.2303176E+01  1.7595309E+03
 1.2325284E+01  1.7711549E+03
 1.2347392E+01  1.7777814E+03
 1.2369500E+01  1.7781487E+03
 1.2391608E+01  1.7715502E+03
 1.2413716E+01  1.7554884E+03
 1.2435824E+01  1.7328510E+03
 1.2457932E+01  1.7067313E+03
 1.2480041E+01  1.6816873E+03
 1.2502149E+01  1.6593292E+03
 1.2524258E+01  1.6435969E+03
 1.2546366E+01  1.6346420E+03
 1.2568474E+01  1.6275817E+03
 1.2590582E+01  1.6211788E+03
 1.2612690E+01  1.6172551E+03
 1.2634798E+01  1.6140540E+03
 1.2656906E+01  1.6121943E+03
 1.2679014E+01  1.6109066E+03
 1.2701122E+01  1.6099176E+03
 1.2723230E+01  1.6095162E+03
 1.2745338E+01  1.6097039E+03
 1.2767447E+01  1.6076937E+03
 1.2789555E+01  1.6055525E+03
 1.2811663E+01  1.6044017E+03
 1.2833771E+01  1.6031906E+03
 1.2855879E+01  1.6018713E+03
 1.2877987E+01  1.6012831E+03
 1.2900096E+01  1.5994760E+03
 1.2922204E+01  1.5981104E+03
 1.2944312E+01  1.5969000E+03
 1.2966420E+01  1.5974390E+03
 1.2988528E+01  1.5974869E+03
 1.3010636E+01  1.5968785E+03
 1.3032744E+01  1.5953970E+03
 1.3054852E+01  1.5945496E+03
 1.3076961E+01  1.5945807E+03
 1.3099069E+01  1.5938246E+03
 1.3121177E+01  1.5934502E+03
 1.3143285E+01  1.5935405E+03
 1.3165393E+01  1.5937272E+03
 1.3187501E+01  1.5922222E+03
 1.3209609E+01  1.5923300E+03
 1.3231717E+01  1.5934891E+03
 1.3253825E+01  1.5948062E+03
 1.3275933E+01  1.5957863E+03
 1.3298042E+01  1.5954828E+03
 1.3320150E+01  1.5951469E+03
 1.3342258E+01  1.5954020E+03
 1.3364367E+01  1.5952930E+03
 1.3386475E+01  1.5963114E+03
 1.3408583E+01  1.5981185E+03
 1.3430691E+01  1.5993372E+03
 1.3452799E+01  1.5997966E+03
 1.3474907E+01  1.6001731E+03
 1.3497015E+01  1.6004207E+03
 1.3519123E+01  1.6008699E+03
 1.3541231E+01  1.6003121E+03
 1.3563339E+01  1.5996765E+03
 1.3585447E+01  1.5996619E+03
 1.3607555E+01  1.6005883E+03
 1.3629663E+01  1.6019888E+03
 1.3651772E+01  1.6043889E+03
 1.3673881E+01  1.6046038E+03
 1.3695989E+01  1.6060104E+03
 1.3718097E+01  1.6085095E+03
 1.3740205E+01  1.6105724E+03
 1.3762313E+01  1.6130729E+03
 1.3784421E+01  1.6150328E+03
 1.3806529E+01  1.6154302E+03
 1.3828637E+01  1.6154546E+03
 1.3850745E+01  1.6134264E+03
 1.3872853E+01  1.6121567E+03
 1.3894961E+01  1.6121350E+03
 1.3917069E+01  1.6116969E+03
 1.3939178E+01  1.6102129E+03
 1.3961286E+01  1.6091644E+03
 1.3983394E+01  1.6080698E+03
 1.4005502E+01  1.6083774E+03
 1.4027610E+01  1.6100154E+03
 1.4049719E+01  1.6125122E+03
 1.4071827E+01  1.6127194E+03
 1.4093935E+01  1.6122310E+03
 1.4116043E+01  1.6107977E+03
 1.4138151E+01  1.6104606E+03
 1.4160259E+01  1.6115851E+03
 1.4182367E+01  1.6123436E+03
 1.4204475E+01  1.6123159E+03
 1.4226583E+01  1.6118821E+03
 1.4248692E+01  1.6134232E+03
 1.4270800E+01  1.6133402E+03
 1.4292908E+01  1.6137114E+03
 1.4315016E+01  1.6133027E+03
 1.4337124E+01  1.6142294E+03
 1.4359232E+01  1.6153215E+03
 1.4381340E+01  1.6150825E+03
 1.4403448E+01  1.6164851E+03
 1.4425556E+01  1.6166796E+03
 1.4447665E+01  1.6168099E+03
 1.4469773E+01  1.6177919E+03
 1.4491881E+01  1.6194310E+03
 1.4513989E+01  1.6203273E+03
 1.4536098E+01  1.6201985E+03
 1.4558206E+01  1.6192474E+03
 1.4580314E+01  1.6195226E+03
 1.4602422E+01  1.6212694E+03
 1.4624530E+01  1.6221185E+03
 1.4646638E+01  1.6226849E+03
 1.4668746E+01  1.6231008E+03
 1.4690854E+01  1.6234381E+03
 1.4712962E+01  1.6244989E+03
 1.4735070E+01  1.6255261E+03
 1.4757178E+01  1.6254585E+03
 1.4779286E+01  1.6246458E+03
 1.4801394E+01  1.6243048E+03
 1.4823503E+01  1.6243970E+03
 1.4845612E+01  1.6246860E+03
 1.4867720E+01  1.6256215E+03
 1.4889828E+01  1.6266165E+03
 1.4911936E+01  1.6275417E+03
 1.4934044E+01  1.6283665E+03
 1.4956152E+01  1.6291365E+03
 1.4978260E+01  1.6305222E+03
 1.5000368E+01  1.6319091E+03
 1.5022476E+01  1.6337985E+03
 1.5044584E+01  1.6360125E+03
 1.5066692E+01  1.6371639E+03
 1.5088800E+01  1.6395037E+03
 1.5110909E+01  1.6408950E+03
 1.5133017E+01  1.6419221E+03
 1.5155125E+01  1.6441459E+03
 1.5177233E+01  1.6470104E+03
 1.5199341E+01  1.6474651E+03
 1.5221450E+01  1.6471097E+03
 1.5243558E+01  1.6452598E+03
 1.5265666E+01  1.6434030E+03
 1.5287774E+01  1.6432946E+03
 1.5309882E+01  1.6430927E+03
 1.5331990E+01  1.6430763E+03
 1.5354098E+01  1.6436028E+03
 1.5376206E+01  1.6455548E+03
 1.5398314E+01  1.6467677E+03
 1.5420423E+01  1.6471147E+03
 1.5442531E+01  1.6462250E+03
 1.5464639E+01  1.6462266E+03
 1.5486747E+01  1.6470625E+03
 1.5508855E+01  1.6473544E+03
 1.5530963E+01  1.6453539E+03
 1.5553071E+01  1.6454186E+03
 1.5575179E+01  1.6469718E+03
 1.5597288E+01  1.6461329E+03
 1.5619396E+01  1.6460472E+03
 1.5641504E+01  1.6462483E+03
 1.5663612E+01  1.6468773E+03
 1.5685720E+01  1.6474856E+03
 1.5707829E+01  1.6470198E+03
 1.5729937E+01  1.6478766E+03
 1.5752045E+01  1.6480426E+03
 1.5774153E+01  1.6489170E+03
 1.5796261E+01  1.6503857E+03
 1.5818369E+01  1.6518871E+03
 1.5840477E+01  1.6525493E+03
 1.5862585E+01  1.6548687E+03
 1.5884693E+01  1.6554438E+03
 1.5906801E+01  1.6550157E+03
 1.5928909E+01  1.6549791E+03
 1.5951017E+01  1.6536095E+03
 1.5973126E+01  1.6519506E+03
 1.5995234E+01  1.6513240E+03
 1.6017342E+01  1.6518768E+03
 1.6039450E+01  1.6523037E+03
 1.6061558E+01  1.6523613E+03
 1.6083666E+01  1.6523447E+03
 1.6105774E+01  1.6517675E+03
 1.6127882E+01  1.6504496E+03
 1.6149990E+01  1.6488123E+03
 1.6172100E+01  1.6491758E+03
 1.6194208E+01  1.6502092E+03
 1.6216316E+01  1.6506051E+03
 1.6238424E+01  1.6490869E+03
 1.6260532E+01  1.6479333E+03
 1.6282640E+01  1.6473627E+03
 1.6304749E+01  1.6470015E+03
 1.6326857E+01  1.6466537E+03
 1.6348965E+01  1.6473405E+03
 1.6371073E+01  1.6474098E+03
 1.6393181E+01  1.6463633E+03
 1.6415289E+01  1.6459974E+03
 1.6437397E+01  1.6464014E+03
 1.6459505E+01  1.6467753E+03
 1.6481613E+01  1.6464911E+03
 1.6503721E+01  1.6470361E+03
 1.6525829E+01  1.6467615E+03
 1.6547937E+01  1.6462145E+03
 1.6570045E+01  1.6455920E+03
 1.6592154E+01  1.6455374E+03
 1.6614262E+01  1.6466527E+03
 1.6636370E+01  1.6488663E+03
 1.6658478E+01  1.6510330E+03
 1.6680586E+01  1.6515818E+03
 1.6702694E+01  1.6503812E+03
 1.6724802E+01  1.6525782E+03
 1.6746910E+01  1.6548793E+03
 1.6769018E+01  1.6568668E+03
 1.6791126E+01  1.6625327E+03
 1.6813234E+01  1.6702816E+03
 1.6835342E+01  1.6803009E+03
 1.6857450E+01  1.6922533E+03
 1.6879559E+01  1.7020607E+03
 1.6901667E+01  1.7103315E+03
 1.6923775E+01  1.7131567E+03
 1.6945885E+01  1.7103513E+03
 1.6967993E+01  1.7046639E+03
 1.6990101E+01  1.6952771E+03
 1.7012209E+01  1.6852228E+03
 1.7034317E+01  1.6779792E+03
 1.7056425E+01  1.6717301E+03
 1.7078533E+01  1.6657291E+03
 1.7100641E+01  1.6605012E+03
 1.7122749E+01  1.6566180E+03
 1.7144857E+01  1.6546505E+03
 1.7166965E+01  1.6535245E+03
 1.7189074E+01  1.6537151E+03
 1.7211182E+01  1.6552058E+03
 1.7233290E+01  1.6587264E+03
 1.7255398E+01  1.6638824E+03
 1.7277506E+01  1.6701853E+03
 1.7299614E+01  1.6771470E+03
 1.7321722E+01  1.6848423E+03
 1.7343830E+01  1.6933339E+03
 1.7365938E+01  1.7037532E+03
 1.7388046E+01  1.7152819E+03
 1.7410154E+01  1.7247145E+03
 1.7432262E+01  1.7325851E+03
 1.7454370E+01  1.7360458E+03
 1.7476479E+01  1.7330996E+03
 1.7498587E+01  1.7239272E+03
 1.7520695E+01  1.7109512E+03
 1.7542803E+01  1.6989714E+03
 1.7564911E+01  1.6870923E+03
 1.7587019E+01  1.6757821E+03
 1.7609127E+01  1.6664553E+03
 1.7631235E+01  1.6586742E+03
 1.7653343E+01  1.6531263E+03
 1.7675451E+01  1.6491864E+03
 1.7697559E+01  1.6461772E+03
 1.7719669E+01  1.6435675E+03
 1.7741777E+01  1.6423829E+03
 1.7763885E+01  1.6404382E+03
 1.7785994E+01  1.6381664E+03
 1.7808102E+01  1.6355768E+03
 1.7830210E+01  1.6326931E+03
 1.7852318E+01  1.6286111E+03
 1.7874426E+01  1.6258823E+03
 1.7896534E+01  1.6220305E+03
 1.7918642E+01  1.6177296E+03
 1.7940750E+01  1.6140270E+03
 1.7962858E+01  1.6113490E+03
 1.7984966E+01  1.6091902E+03
 1.8007074E+01  1.6081183E+03
 1.8029182E+01  1.6077240E+03
 1.8051291E+01  1.6051349E+03
 1.8073399E+01  1.6029904E+03
 1.8095507E+01  1.6013501E+03
 1.8117615E+01  1.6002515E+03
 1.8139723E+01  1.5987184E+03
 1.8161831E+01  1.5967266E+03
 1.8183939E+01  1.5941228E+03
 1.8206047E+01  1.5912776E+03
 1.8228155E+01  1.5885974E+03
 1.8250263E+01  1.5865917E+03
 1.8272371E+01  1.5848418E+03
 1.8294479E+01  1.5825291E+03
 1.8316587E+01  1.5802944E+03
 1.8338696E+01  1.5782672E+03
 1.8360804E+01  1.5767462E+03
 1.8382912E+01  1.5752715E+03
 1.8405020E+01  1.5725640E+03
 1.8427128E+01  1.5711482E+03
 1.8449236E+01  1.5709137E+03
 1.8471344E+01  1.5693781E+03
 1.8493454E+01  1.5667236E+03
 1.8515562E+01  1.5650331E+03
 1.8537670E+01  1.5644088E+03
 1.8559778E+01  1.5643478E+03
 1.8581886E+01  1.5627887E+03
 1.8603994E+01  1.5609473E+03
 1.8626102E+01  1.5593140E+03
 1.8648211E+01  1.5572257E+03
 1.8670319E+01  1.5558429E+03
 1.8692427E+01  1.5552982E+03
 1.8714535E+01  1.5555747E+03
 1.8736643E+01  1.5563964E+03
 1.8758751E+01  1.5561854E+03
 1.8780859E+01  1.5538109E+03
 1.8802967E+01  1.5514196E+03
 1.8825075E+01  1.5492905E+03
 1.8847183E+01  1.5488401E+03
 1.8869291E+01  1.5469521E+03
 1.8891399E+01  1.5444951E+03
 1.8913507E+01  1.5426481E+03
 1.8935616E+01  1.5399347E+03
 1.8957724E+01  1.5368411E+03
 1.8979832E+01  1.5334249E+03
 1.9001940E+01  1.5315889E+03
 1.9024048E+01  1.5299714E+03
 1.9046156E+01  1.5280040E+03
 1.9068264E+01  1.5271011E+03
 1.9090372E+01  1.5245822E+03
 1.9112480E+01  1.5222275E+03
 1.9134588E+01  1.5192623E+03
 1.9156696E+01  1.5166678E+03
 1.9178804E+01  1.5153820E+03
 1.9200912E+01  1.5133956E+03
 1.9223021E+01  1.5121965E+03
 1.9245131E+01  1.5093683E+03
 1.9267239E+01  1.5072538E+03
 1.9289347E+01  1.5069807E+03
 1.9311455E+01  1.5064392E+03
 1.9333563E+01  1.5059343E+03
 1.9355671E+01  1.5038011E+03
 1.9377779E+01  1.5020585E+03
 1.9399887E+01  1.5015413E+03
 1.9421995E+01  1.5008472E+03
 1.9444103E+01  1.5004136E+03
 1.9466211E+01  1.4998375E+03
 1.9488319E+01  1.4986086E+03
 1.9510427E+01  1.4965769E+03
 1.9532536E+01  1.4937755E+03
 1.9554644E+01  1.4921268E+03
 1.9576752E+01  1.4913447E+03
 1.9598860E+01  1.4907505E+03
 1.9620968E+01  1.4891340E+03
 1.9643076E+01  1.4875760E+03
 1.9665184E+01  1.4859352E+03
 1.9687292E+01  1.4847717E+03
 1.9709400E+01  1.4847118E+03
 1.9731508E+01  1.4829456E+03
 1.9753616E+01  1.4817954E+03
 1.9775724E+01  1.4815819E+03
 1.9797832E+01  1.4808193E+03
 1.9819941E+01  1.4788781E+03
 1.9842049E+01  1.4777797E+03
 1.9864157E+01  1.4760206E+03
 1.9886265E+01  1.4741792E+03
 1.9908373E+01  1.4726150E+03
 1.9930481E+01  1.4711837E+03
 1.9952589E+01  1.4696372E+03
 1.9974697E+01  1.4679620E+03
 1.9996805E+01  1.4678973E+03
 2.0018915E+01  1.4681946E+03
 2.0041023E+01  1.4671683E+03
 2.0063131E+01  1.4661567E+03
 2.0085239E+01  1.4657753E+03
 2.0107347E+01  1.4653896E+03
 2.0129456E+01  1.4660164E+03
 2.0151564E+01  1.4667358E+03
 2.0173672E+01  1.4673375E+03
 2.0195780E+01  1.4695437E+03
 2.0217888E+01  1.4716748E+03
 2.0239996E+01  1.4733022E+03
 2.0262104E+01  1.4763964E+03
 2.0284212E+01  1.4813090E+03
 2.0306320E+01  1.4865842E+03
 2.0328428E+01  1.4903940E+03
 2.0350536E+01  1.4954659E+03
 2.0372644E+01  1.5002018E+03
 2.0394753E+01  1.5035560E+03
 2.0416861E+01  1.5060928E+03
 2.0438969E+01  1.5078251E+03
 2.0461077E+01  1.5074991E+03
 2.0483185E+01  1.5055894E+03
 2.0505293E+01  1.5031466E+03
 2.0527401E+01  1.4990898E+03
 2.0549509E+01  1.4951000E+03
 2.0571617E+01  1.4902836E+03
 2.0593725E+01  1.4854543E+03
 2.0615833E+01  1.4812850E+03
 2.0637941E+01  1.4770286E+03
 2.0660049E+01  1.4733663E+03
 2.0682158E+01  1.4692490E+03
 2.0704266E+01  1.4646316E+03
 2.0726374E+01  1.4607922E+03
 2.0748482E+01  1.4560262E+03
 2.0770590E+01  1.4518140E+03
 2.0792700E+01  1.4476813E+03
 2.0814808E+01  1.4421312E+03
 2.0836916E+01  1.4387133E+03
 2.0859024E+01  1.4357451E+03
 2.0881132E+01  1.4312424E+03
 2.0903240E+01  1.4282932E+03
 2.0925348E+01  1.4251683E+03
 2.0947456E+01  1.4216882E+03
 2.0969564E+01  1.4174104E+03
 2.0991673E+01  1.4157854E+03
 2.1013781E+01  1.4133607E+03
 2.1035889E+01  1.4105139E+03
 2.1057997E+01  1.4089280E+03
 2.1080105E+01  1.4083157E+03
 2.1102213E+01  1.4066342E+03
 2.1124321E+01  1.4058340E+03
 2.1146429E+01  1.4064648E+03
 2.1168537E+01  1.4064365E+03
 2.1190645E+01  1.4044056E+03
 2.1212753E+01  1.4036636E+03
 2.1234861E+01  1.4038739E+03
 2.1256969E+01  1.4025171E+03
 2.1279078E+01  1.4017902E+03
 2.1301186E+01  1.4028806E+03
 2.1323294E+01  1.4011329E+03
 2.1345402E+01  1.3986907E+03
 2.1367510E+01  1.3966188E+03
 2.1389618E+01  1.3955784E+03
 2.1411726E+01  1.3930388E+03
 2.1433834E+01  1.3910444E+03
 2.1455942E+01  1.3901569E+03
 2.1478050E+01  1.3882574E+03
 2.1500158E+01  1.3861240E+03
 2.1522266E+01  1.3846930E+03
 2.1544374E+01  1.3838872E+03
 2.1566484E+01  1.3824036E+03
 2.1588593E+01  1.3804003E+03
 2.1610701E+01  1.3787158E+03
 2.1632809E+01  1.3766760E+03
 2.1654917E+01  1.3751938E+03
 2.1677025E+01  1.3722798E+03
 2.1699133E+01  1.3709722E+03
 2.1721241E+01  1.3693997E+03
 2.1743349E+01  1.3662966E+03
 2.1765457E+01  1.3636003E+03
 2.1787565E+01  1.3623987E+03
 2.1809673E+01  1.3588169E+03
 2.1831781E+01  1.3555013E+03
 2.1853889E+01  1.3540210E+03
 2.1875998E+01  1.3524517E+03
 2.1898106E+01  1.3504397E+03
 2.1920214E+01  1.3500677E+03
 2.1942322E+01  1.3487585E+03
 2.1964430E+01  1.3464563E+03
 2.1986538E+01  1.3444573E+03
 2.2008646E+01  1.3436846E+03
 2.2030754E+01  1.3434479E+03
 2.2052862E+01  1.3417913E+03
 2.2074970E+01  1.3404049E+03
 2.2097078E+01  1.3393915E+03
 2.2119186E+01  1.3389880E+03
 2.2141294E+01  1.3383340E+03
 2.2163403E+01  1.3369357E+03
 2.2185511E+01  1.3350729E+03
 2.2207619E+01  1.3337808E+03
 2.2229727E+01  1.3330698E+03
 2.2251835E+01  1.3312498E+03
 2.2273943E+01  1.3293104E+03
 2.2296051E+01  1.3286926E+03
 2.2318159E+01  1.3285188E+03
 2.2340269E+01  1.3263243E+03
 2.2362377E+01  1.3252732E+03
 2.2384485E+01  1.3245677E+03
 2.2406593E+01  1.3232430E+03
 2.2428701E+01  1.3213462E+03
 2.2450809E+01  1.3205074E+03
 2.2472918E+01  1.3187915E+03
 2.2495026E+01  1.3173488E+03
 2.2517134E+01  1.3160079E+03
 2.2539242E+01  1.3152808E+03
 2.2561350E+01  1.3139426E+03
 2.2583458E+01  1.3129753E+03
 2.2605566E+01  1.3112162E+03
 2.2627674E+01  1.3083300E+03
 2.2649782E+01  1.3074951E+03
 2.2671890E+01  1.3065775E+03
 2.2693998E+01  1.3058204E+03
 2.2716106E+01  1.3058978E+03
 2.2738214E+01  1.3057645E+03
 2.2760323E+01  1.3043643E+03
 2.2782431E+01  1.3016213E+03
 2.2804539E+01  1.3002648E+03
 2.2826647E+01  1.2997710E+03
 2.2848755E+01  1.2978094E+03
 2.2870863E+01  1.2971848E+03
 2.2892971E+01  1.2959202E+03
 2.2915079E+01  1.2948708E+03
 2.2937187E+01  1.2933123E+03
 2.2959295E+01  1.2935634E+03
 2.2981403E+01  1.2909403E+03
 2.3003511E+01  1.2902471E+03
 2.3025620E+01  1.2885996E+03
 2.3047728E+01  1.2874371E+03
 2.3069836E+01  1.2867461E+03
 2.3091946E+01  1.2856547E+03
 2.3114054E+01  1.2833287E+03
 2.3136162E+01  1.2605197E+03
 2.3158270E+01  1.1880392E+03
 2.3180378E+01  1.1195396E+03
 2.3202486E+01  1.0718889E+03
 2.3224594E+01  1.0432754E+03
 2.3246702E+01  1.0158615E+03
 2.3268810E+01  9.8502911E+02
 2.3290918E+01  9.5597485E+02
 2.3313026E+01  9.4863281E+02
 2.3335135E+01  9.3386224E+02
 2.3357243E+01  9.1830273E+02
 2.3379351E+01  9.0182593E+02
 2.3401459E+01  8.8795300E+02
 2.3423567E+01  8.7216705E+02
 2.3445675E+01  8.5838696E+02
 2.3467783E+01  8.4567871E+02
 2.3489891E+01  8.3321210E+02
 2.3511999E+01  8.2360181E+02
 2.3534107E+01  8.2463824E+02
 2.3556215E+01  8.1962891E+02
 2.3578323E+01  8.1461243E+02
 2.3600431E+01  8.0816699E+02
 2.3622540E+01  8.0316571E+02
 2.3644648E+01  7.9648962E+02
 2.3666756E+01  7.9203223E+02
 2.3688864E+01  7.8618311E+02
 2.3710972E+01  7.8205365E+02
 2.3733080E+01  7.7710944E+02
 2.3755188E+01  7.7407129E+02
 2.3777296E+01  7.7088422E+02
 2.3799404E+01  7.6975531E+02
 2.3821512E+01  7.6814746E+02
 2.3843620E+01  7.6632098E+02
 2.3865730E+01  7.6644684E+02
 2.3887838E+01  7.6529187E+02
 2.3909946E+01  7.6604968E+02
 2.3932055E+01  7.6551044E+02
 2.3954163E+01  7.6591357E+02
 2.3976271E+01  7.6578497E+02
 2.3998379E+01  7.6597034E+02
 2.4020487E+01  7.6477869E+02
 2.4042595E+01  7.6417352E+02
 2.4064703E+01  7.6035559E+02
 2.4086811E+01  7.5855908E+02
 2.4108919E+01  7.5501331E+02
 2.4131027E+01  7.4981647E+02
 2.4153135E+01  7.4392365E+02
 2.4175243E+01  7.3511188E+02
 2.4197351E+01  7.2646698E+02
 2.4219460E+01  7.1792975E+02
 2.4241568E+01  7.0736169E+02
 2.4263676E+01  6.9769916E+02
 2.4285784E+01  6.8805640E+02
 2.4307892E+01  6.7671991E+02
 2.4330000E+01  6.6505432E+02
 2.4352108E+01  6.5271307E+02
 2.4374216E+01  6.3942657E+02
 2.4396324E+01  6.2502356E+02
 2.4418432E+01  6.0985730E+02
 2.4440540E+01  6.0096161E+02
 2.4462648E+01  5.8554126E+02
 2.4484756E+01  5.6617975E+02
 2.4506865E+01  5.4982709E+02
 2.4528973E+01  5.2548627E+02
 2.4551081E+01  5.0664645E+02
 2.4573189E+01  4.7278583E+02
 2.4595297E+01  4.4240112E+02
 2.4617405E+01  4.0594073E+02
 2.4639515E+01  3.8124884E+02
 2.4661623E+01  3.5196176E+02
 2.4683731E+01  3.1311816E+02
 2.4705839E+01  2.6359067E+02
 2.4727947E+01  2.0120175E+02
 2.4750055E+01  1.0103091E+02
 2.4772163E+01  1.7573507E+01
 2.4794271E+01  2.7751815E-02
 2.4816380E+01  0.0000000E+00
 2.4838488E+01  0.0000000E+00
 2.4860596E+01  0.0000000E+00
 2.4882704E+01  0.0000000E+00
 2.4904812E+01  0.0000000E+00
 2.4926920E+01  0.0000000E+00
 2.4949028E+01  0.0000000E+00
 2.4971136E+01  0.0000000E+00
 2.4993244E+01  0.0000000E+00
 2.5015352E+01  0.0000000E+00
 2.5037460E+01  0.0000000E+00
 2.5059568E+01  0.0000000E+00
 2.5081676E+01  0.0000000E+00
 2.5103785E+01  0.0000000E+00
 2.5125893E+01  0.0000000E+00
 2.5148001E+01  0.0000000E+00
 2.5170109E+01  0.0000000E+00
 2.5192217E+01  0.0000000E+00
 2.5214325E+01  0.0000000E+00
 2.5236433E+01  0.0000000E+00
 2.5258541E+01  0.0000000E+00
 2.5280649E+01  0.0000000E+00
 2.5302757E+01  0.0000000E+00
 2.5324865E+01  0.0000000E+00
 2.5346973E+01  0.0000000E+00
 2.5369081E+01  0.0000000E+00
 2.5391190E+01  0.0000000E+00
 2.5413300E+01  0.0000000E+00
 2.5435408E+01  0.0000000E+00
 2.5457516E+01  0.0000000E+00
 2.5479624E+01  0.0000000E+00
 2.5501732E+01  0.0000000E+00
 2.5523840E+01  0.0000000E+00
 2.5545948E+01  0.0000000E+00
 2.5568056E+01  0.0000000E+00
 2.5590164E+01  0.0000000E+00
 2.5612272E+01  0.0000000E+00
 2.5634380E+01  0.0000000E+00
 2.5656488E+01  0.0000000E+00
 2.5678596E+01  0.0000000E+00
 2.5700705E+01  0.0000000E+00
 2.5722813E+01  0.0000000E+00
 2.5744921E+01  0.0000000E+00
 2.5767029E+01  0.0000000E+00
 2.5789137E+01  0.0000000E+00
 2.5811245E+01  0.0000000E+00
 2.5833353E+01  0.0000000E+00
 2.5855461E+01  0.0000000E+00
 2.5877569E+01  0.0000000E+00
 2.5899677E+01  0.0000000E+00
 2.5921785E+01  0.0000000E+00
 2.5943893E+01  0.0000000E+00
 2.5966002E+01  0.0000000E+00
 2.5988110E+01  0.0000000E+00
 2.6010218E+01  0.0000000E+00
 2.6032326E+01  0.0000000E+00
 2.6054434E+01  0.0000000E+00
 2.6076542E+01  0.0000000E+00
 2.6098650E+01  0.0000000E+00
 2.6120758E+01  0.0000000E+00
 2.6142866E+01  0.0000000E+00
 2.6164974E+01  0.0000000E+00
 2.6187084E+01  0.0000000E+00
 2.6209192E+01  0.0000000E+00
 2.6231300E+01  0.0000000E+00
 2.6253408E+01  0.0000000E+00
 2.6275517E+01  0.0000000E+00
 2.6297625E+01  0.0000000E+00
 2.6319733E+01  0.0000000E+00
 2.6341841E+01  0.0000000E+00
 2.6363949E+01  0.0000000E+00
 2.6386057E+01  0.0000000E+00
 2.6408165E+01  0.0000000E+00
 2.6430273E+01  0.0000000E+00
 2.6452381E+01  0.0000000E+00
 2.6474489E+01  0.0000000E+00
 2.6496597E+01  0.0000000E+00
 2.6518705E+01  0.0000000E+00
 2.6540813E+01  0.0000000E+00
 2.6562922E+01  0.0000000E+00
 2.6585030E+01  0.0000000E+00
 2.6607138E+01  0.0000000E+00
 2.6629246E+01  0.0000000E+00
 2.6651354E+01  0.0000000E+00
 2.6673462E+01  0.0000000E+00
 2.6695570E+01  0.0000000E+00
 2.6717678E+01  0.0000000E+00
 2.6739786E+01  0.0000000E+00
 2.6761894E+01  0.0000000E+00
 2.6784002E+01  0.0000000E+00
 2.6806110E+01  0.0000000E+00
 2.6828218E+01  0.0000000E+00
 2.6850327E+01  0.0000000E+00
 2.6872435E+01  0.0000000E+00
 2.6894543E+01  0.0000000E+00
 2.6916651E+01  0.0000000E+00
 2.6938761E+01  0.0000000E+00
 2.6960869E+01  0.0000000E+00
 2.6982977E+01  0.0000000E+00
 2.7005085E+01  0.0000000E+00
 2.7027193E+01  0.0000000E+00
 2.7049301E+01  0.0000000E+00
 2.7071409E+01  0.0000000E+00
 2.7093517E+01  0.0000000E+00
 2.7115625E+01  0.0000000E+00
 2.7137733E+01  0.0000000E+00
 2.7159842E+01  0.0000000E+00
 2.7181950E+01  0.0000000E+00
 2.7204058E+01  0.0000000E+00
 2.7226166E+01  0.0000000E+00
 2.7248274E+01  0.0000000E+00
 2.7270382E+01  0.0000000E+00
 2.7292490E+01  0.0000000E+00
 2.7314598E+01  0.0000000E+00
 2.7336706E+01  0.0000000E+00
 2.7358814E+01  0.0000000E+00
 2.7380922E+01  0.0000000E+00
 2.7403030E+01  0.0000000E+00
 2.7425138E+01  0.0000000E+00
 2.7447247E+01  0.0000000E+00
 2.7469355E+01  0.0000000E+00
 2.7491463E+01  0.0000000E+00
 2.7513571E+01  0.0000000E+00
 2.7535679E+01  0.0000000E+00
 2.7557787E+01  0.0000000E+00
 2.7579895E+01  0.0000000E+00
 2.7602003E+01  0.0000000E+00
 2.7624111E+01  0.0000000E+00
 2.7646219E+01  0.0000000E+00
 2.7668327E+01  0.0000000E+00
 2.7690435E+01  0.0000000E+00
 2.7712545E+01  0.0000000E+00
 2.7734653E+01  0.0000000E+00
 2.7756762E+01  0.0000000E+00
 2.7778870E+01  0.0000000E+00
 2.7800978E+01  0.0000000E+00
 2.7823086E+01  0.0000000E+00
 2.7845194E+01  0.0000000E+00
 2.7867302E+01  0.0000000E+00
 2.7889410E+01  0.0000000E+00
 2.7911518E+01  0.0000000E+00
 2.7933626E+01  0.0000000E+00
 2.7955734E+01  0.0000000E+00
 2.7977842E+01  0.0000000E+00
 2.7999950E+01  0.0000000E+00
 2.8022058E+01  0.0000000E+00
 2.8044167E+01  0.0000000E+00
 2.8066275E+01  0.0000000E+00
 2.8088383E+01  0.0000000E+00
 2.8110491E+01  0.0000000E+00
 2.8132599E+01  0.0000000E+00
 2.8154707E+01  0.0000000E+00
 2.8176815E+01  0.0000000E+00
 2.8198923E+01  0.0000000E+00
 2.8221031E+01  0.0000000E+00
 2.8243139E+01  0.0000000E+00
 2.8265247E+01  0.0000000E+00
 2.8287355E+01  0.0000000E+00
 2.8309464E+01  0.0000000E+00
 2.8331572E+01  0.0000000E+00
 2.8353680E+01  0.0000000E+00
 2.8375788E+01  0.0000000E+00
 2.8397896E+01  0.0000000E+00
 2.8420004E+01  0.0000000E+00
 2.8442112E+01  0.0000000E+00
 2.8464220E+01  0.0000000E+00
 2.8486330E+01  0.0000000E+00
 2.8508438E+01  0.0000000E+00
 2.8530546E+01  0.0000000E+00
 2.8552654E+01  0.0000000E+00
 2.8574762E+01  0.0000000E+00
 2.8596870E+01  0.0000000E+00
 2.8618979E+01  0.0000000E+00
 2.8641087E+01  0.0000000E+00
 2.8663195E+01  0.0000000E+00
 2.8685303E+01  0.0000000E+00
 2.8707411E+01  0.0000000E+00
 2.8729519E+01  0.0000000E+00
 2.8751627E+01  0.0000000E+00
 2.8773735E+01  0.0000000E+00
 2.8795843E+01  0.0000000E+00
 2.8817951E+01  0.0000000E+00
 2.8840059E+01  0.0000000E+00
 2.8862167E+01  0.0000000E+00
 2.8884275E+01  0.0000000E+00
 2.8906384E+01  0.0000000E+00
 2.8928492E+01  0.0000000E+00
 2.8950600E+01  0.0000000E+00
 2.8972708E+01  0.0000000E+00
 2.8994816E+01  0.0000000E+00
 2.9016924E+01  0.0000000E+00
 2.9039032E+01  0.0000000E+00
 2.9061140E+01  0.0000000E+00
 2.9083248E+01  0.0000000E+00
 2.9105356E+01  0.0000000E+00
 2.9127464E+01  0.0000000E+00
 2.9149572E+01  0.0000000E+00
 2.9171680E+01  0.0000000E+00
 2.9193789E+01  0.0000000E+00
 2.9215897E+01  0.0000000E+00
 2.9238005E+01  0.0000000E+00
 2.9260115E+01  0.0000000E+00
 2.9282223E+01  0.0000000E+00
 2.9304331E+01  0.0000000E+00
 2.9326439E+01  0.0000000E+00
 2.9348547E+01  0.0000000E+00
 2.9370655E+01  0.0000000E+00
 2.9392763E+01  0.0000000E+00
 2.9414871E+01  0.0000000E+00
 2.9436979E+01  0.0000000E+00
 2.9459087E+01  0.0000000E+00
 2.9481195E+01  0.0000000E+00
 2.9503304E+01  0.0000000E+00
 2.9525412E+01  0.0000000E+00
 2.9547520E+01  0.0000000E+00
 2.9569628E+01  0.0000000E+00
 2.9591736E+01  0.0000000E+00
 2.9613844E+01  0.0000000E+00
 2.9635952E+01  0.0000000E+00
 2.9658060E+01  0.0000000E+00
 2.9680168E+01  0.0000000E+00
 2.9702276E+01  0.0000000E+00
 2.9724384E+01  0.0000000E+00
 2.9746492E+01  0.0000000E+00
 2.9768600E+01  0.0000000E+00
 2.9790709E+01  0.0000000E+00
 2.9812817E+01  0.0000000E+00
 2.9834925E+01  0.0000000E+00
 2.9857033E+01  0.0000000E+00
 2.9879141E+01  0.0000000E+00
 2.9901249E+01  0.0000000E+00
 2.9923357E+01  0.0000000E+00
 2.9945465E+01  0.0000000E+00
 2.9967573E+01  0.0000000E+00
 2.9989681E+01  0.0000000E+00
 3.0011789E+01  0.0000000E+00
 3.0033899E+01  0.0000000E+00
 3.0056007E+01  0.0000000E+00
 3.0078115E+01  0.0000000E+00
 3.0100224E+01  0.0000000E+00
 3.0122332E+01  0.0000000E+00
 3.0144440E+01  0.0000000E+00
 3.0166548E+01  0.0000000E+00
 3.0188656E+01  0.0000000E+00
 3.0210764E+01  0.0000000E+00
 3.0232872E+01  0.0000000E+00
 3.0254980E+01  0.0000000E+00
 3.0277088E+01  0.0000000E+00
 3.0299196E+01  0.0000000E+00
 3.0321304E+01  0.0000000E+00
 3.0343412E+01  0.0000000E+00
 3.0365520E+01  0.0000000E+00
 3.0387629E+01  0.0000000E+00
 3.0409737E+01  0.0000000E+00
 3.0431845E+01  0.0000000E+00
 3.0453953E+01  0.0000000E+00
 3.0476061E+01  0.0000000E+00
 3.0498169E+01  0.0000000E+00
 3.0520277E+01  0.0000000E+00
 3.0542385E+01  0.0000000E+00
 3.0564493E+01  0.0000000E+00
 3.0586601E+01  0.0000000E+00
 3.0608709E+01  0.0000000E+00
 3.0630817E+01  0.0000000E+00
 3.0652925E+01  0.0000000E+00
 3.0675034E+01  0.0000000E+00
 3.0697142E+01  0.0000000E+00
 3.0719250E+01  0.0000000E+00
 3.0741358E+01  0.0000000E+00
 3.0763466E+01  0.0000000E+00
 3.0785574E+01  0.0000000E+00
 3.0807684E+01  0.0000000E+00
 3.0829792E+01  0.0000000E+00
 3.0851900E+01  0.0000000E+00
 3.0874008E+01  0.0000000E+00
 3.0896116E+01  0.0000000E+00
 3.0918224E+01  0.0000000E+00
 3.0940332E+01  0.0000000E+00
 3.0962440E+01  0.0000000E+00
 3.0984549E+01  0.0000000E+00
 3.1006657E+01  0.0000000E+00
 3.1028765E+01  0.0000000E+00
 3.1050873E+01  0.0000000E+00
 3.1072981E+01  0.0000000E+00
 3.1095089E+01  0.0000000E+00
 3.1117197E+01  0.0000000E+00
 3.1139305E+01  0.0000000E+00
 3.1161413E+01  0.0000000E+00
 3.1183521E+01  0.0000000E+00
 3.1205629E+01  0.0000000E+00
 3.1227737E+01  0.0000000E+00
 3.1249846E+01  0.0000000E+00
 3.1271954E+01  0.0000000E+00
 3.1294062E+01  0.0000000E+00
 3.1316170E+01  0.0000000E+00
 3.1338278E+01  0.0000000E+00
 3.1360386E+01  0.0000000E+00
 3.1382494E+01  0.0000000E+00
 3.1404602E+01  0.0000000E+00
 3.1426710E+01  0.0000000E+00
 3.1448818E+01  0.0000000E+00
 3.1470926E+01  0.0000000E+00
 3.1493034E+01  0.0000000E+00
 3.1515142E+01  0.0000000E+00
 3.1537251E+01  0.0000000E+00
 3.1559361E+01  0.0000000E+00
 3.1581469E+01  0.0000000E+00
 3.1603577E+01  0.0000000E+00
 3.1625685E+01  0.0000000E+00
 3.1647793E+01  0.0000000E+00
 3.1669901E+01  0.0000000E+00
 3.1692009E+01  0.0000000E+00
 3.1714117E+01  0.0000000E+00
 3.1736225E+01  0.0000000E+00
 3.1758333E+01  0.0000000E+00
 3.1780441E+01  0.0000000E+00
 3.1802549E+01  0.0000000E+00
 3.1824657E+01  0.0000000E+00
 3.1846766E+01  0.0000000E+00
 3.1868874E+01  0.0000000E+00
 3.1890982E+01  0.0000000E+00
 3.1913090E+01  0.0000000E+00
 3.1935198E+01  0.0000000E+00
 3.1957306E+01  0.0000000E+00
 3.1979414E+01  0.0000000E+00
 3.2001522E+01  0.0000000E+00
 3.2023632E+01  0.0000000E+00
 3.2045738E+01  0.0000000E+00
 3.2067848E+01  0.0000000E+00
 3.2089954E+01  0.0000000E+00
 3.2112064E+01  0.0000000E+00
 3.2134171E+01  0.0000000E+00
 3.2156281E+01  0.0000000E+00
 3.2178387E+01  0.0000000E+00
 3.2200497E+01  0.0000000E+00
 3.2222603E+01  0.0000000E+00
 3.2244713E+01  0.0000000E+00
 3.2266819E+01  0.0000000E+00
 3.2288929E+01  0.0000000E+00
 3.2311035E+01  0.0000000E+00
 3.2333145E+01  0.0000000E+00
 3.2355251E+01  0.0000000E+00
 3.2377361E+01  0.0000000E+00
 3.2399467E+01  0.0000000E+00
 3.2421577E+01  0.0000000E+00
 3.2443684E+01  0.0000000E+00
 3.2465794E+01  0.0000000E+00
 3.2487900E+01  0.0000000E+00
 3.2510010E+01  0.0000000E+00
 3.2532116E+01  0.0000000E+00
 3.2554226E+01  0.0000000E+00
 3.2576332E+01  0.0000000E+00
 3.2598442E+01  0.0000000E+00
 3.2620548E+01  0.0000000E+00
 3.2642658E+01  0.0000000E+00
 3.2664764E+01  0.0000000E+00
 3.2686874E+01  0.0000000E+00
 3.2708981E+01  0.0000000E+00
 3.2731091E+01  0.0000000E+00
