D:\DATA\UserData\CuiTian20190403\CWH\BA\BA_17.tif: 2-theta Scan
2-Theta Angle (Degrees)
Intensity
       1481
 1.1054066E-02  3.7273460E+01
 3.3162199E-02  3.8014820E+01
 5.5270333E-02  3.9341072E+01
 7.7378467E-02  4.0208488E+01
 9.9486597E-02  4.2165524E+01
 1.2159473E-01  4.3439377E+01
 1.4370286E-01  4.2634655E+01
 1.6581100E-01  4.2560852E+01
 1.8791912E-01  4.1611706E+01
 2.1002726E-01  4.1007309E+01
 2.3213540E-01  4.1294502E+01
 2.5424352E-01  4.0704121E+01
 2.7635166E-01  4.1779091E+01
 2.9845980E-01  4.0399952E+01
 3.2056794E-01  4.0018246E+01
 3.4267604E-01  4.0430099E+01
 3.6478418E-01  4.2018810E+01
 3.8689232E-01  4.2768097E+01
 4.0900046E-01  4.1857437E+01
 4.3110859E-01  4.1295948E+01
 4.5321673E-01  4.1137238E+01
 4.7532487E-01  4.1516788E+01
 4.9743298E-01  4.1067852E+01
 5.1954114E-01  4.0968697E+01
 5.4164928E-01  4.0786148E+01
 5.6375736E-01  4.0095787E+01
 5.8586550E-01  3.9777676E+01
 6.0797364E-01  4.0286137E+01
 6.3008177E-01  4.1284706E+01
 6.5218991E-01  4.1746872E+01
 6.7429805E-01  4.1533260E+01
 6.9640619E-01  4.1492981E+01
 7.1851432E-01  4.1820370E+01
 7.4062246E-01  4.1973534E+01
 7.6273060E-01  4.1678314E+01
 7.8483874E-01  4.1505970E+01
 8.0694687E-01  4.1373684E+01
 8.2905495E-01  4.1803200E+01
 8.5116309E-01  4.1837318E+01
 8.7327123E-01  4.1888008E+01
 8.9537936E-01  4.1575573E+01
 9.1748750E-01  4.2101799E+01
 9.3959564E-01  4.2798817E+01
 9.6170378E-01  4.3083714E+01
 9.8381191E-01  4.2889999E+01
 1.0059201E+00  4.2681011E+01
 1.0280281E+00  4.2459839E+01
 1.0501363E+00  4.2380863E+01
 1.0722444E+00  4.2728477E+01
 1.0943526E+00  4.2966782E+01
 1.1164607E+00  4.3285744E+01
 1.1385689E+00  4.3339111E+01
 1.1606770E+00  4.3614132E+01
 1.1827852E+00  4.3996864E+01
 1.2048932E+00  4.4657795E+01
 1.2270014E+00  4.5091671E+01
 1.2491095E+00  4.5284920E+01
 1.2712176E+00  4.5552135E+01
 1.2933258E+00  4.5314720E+01
 1.3154339E+00  4.5113758E+01
 1.3375421E+00  4.5427284E+01
 1.3596501E+00  4.5972027E+01
 1.3817583E+00  4.6311035E+01
 1.4038664E+00  4.6450371E+01
 1.4259746E+00  4.6384960E+01
 1.4480827E+00  4.6739189E+01
 1.4701909E+00  4.6411148E+01
 1.4922990E+00  4.6338665E+01
 1.5144070E+00  4.6450657E+01
 1.5365152E+00  4.6560692E+01
 1.5586233E+00  4.6813877E+01
 1.5807315E+00  4.8063816E+01
 1.6028396E+00  4.9257244E+01
 1.6249478E+00  4.9251499E+01
 1.6470559E+00  4.9800457E+01
 1.6691641E+00  5.0476349E+01
 1.6912721E+00  5.1009396E+01
 1.7133803E+00  5.1922932E+01
 1.7354884E+00  5.2588120E+01
 1.7575966E+00  5.2762562E+01
 1.7797047E+00  5.3209312E+01
 1.8018128E+00  5.3770008E+01
 1.8239210E+00  5.5028755E+01
 1.8460290E+00  5.7047215E+01
 1.8681372E+00  6.0141621E+01
 1.8902453E+00  6.7237228E+01
 1.9123535E+00  8.4351112E+01
 1.9344616E+00  1.1365778E+02
 1.9565698E+00  1.5023033E+02
 1.9786779E+00  1.8819058E+02
 2.0007861E+00  2.2648560E+02
 2.0228941E+00  2.6397098E+02
 2.0450022E+00  2.9895447E+02
 2.0671103E+00  3.3366837E+02
 2.0892186E+00  3.7337643E+02
 2.1113267E+00  4.1796533E+02
 2.1334348E+00  4.6693475E+02
 2.1555429E+00  5.2295398E+02
 2.1776512E+00  5.7858759E+02
 2.1997592E+00  6.2322113E+02
 2.2218673E+00  6.6004437E+02
 2.2439754E+00  6.9347986E+02
 2.2660837E+00  7.2548163E+02
 2.2881918E+00  7.5733978E+02
 2.3102999E+00  7.8519159E+02
 2.3324080E+00  8.1204059E+02
 2.3545160E+00  8.3959039E+02
 2.3766243E+00  8.6693170E+02
 2.3987324E+00  8.9637274E+02
 2.4208405E+00  9.2384125E+02
 2.4429486E+00  9.5067950E+02
 2.4650569E+00  9.7714850E+02
 2.4871650E+00  1.0054958E+03
 2.5092731E+00  1.0292184E+03
 2.5313811E+00  1.0498284E+03
 2.5534894E+00  1.0710306E+03
 2.5755975E+00  1.0938043E+03
 2.5977056E+00  1.1140414E+03
 2.6198137E+00  1.1357535E+03
 2.6419218E+00  1.1590663E+03
 2.6640301E+00  1.1791256E+03
 2.6861382E+00  1.1983900E+03
 2.7082462E+00  1.2171399E+03
 2.7303543E+00  1.2373291E+03
 2.7524626E+00  1.2543021E+03
 2.7745707E+00  1.2726431E+03
 2.7966788E+00  1.2908374E+03
 2.8187869E+00  1.3080906E+03
 2.8408952E+00  1.3258671E+03
 2.8630033E+00  1.3434369E+03
 2.8851113E+00  1.3610233E+03
 2.9072194E+00  1.3766843E+03
 2.9293275E+00  1.3910325E+03
 2.9514358E+00  1.4059946E+03
 2.9735439E+00  1.4198054E+03
 2.9956520E+00  1.4347468E+03
 3.0177600E+00  1.4490665E+03
 3.0398684E+00  1.4620765E+03
 3.0619764E+00  1.4783308E+03
 3.0840845E+00  1.4907638E+03
 3.1061926E+00  1.5031710E+03
 3.1283009E+00  1.5125929E+03
 3.1504090E+00  1.5259628E+03
 3.1725171E+00  1.5367991E+03
 3.1946251E+00  1.5469907E+03
 3.2167332E+00  1.5574973E+03
 3.2388415E+00  1.5692061E+03
 3.2609496E+00  1.5810006E+03
 3.2830577E+00  1.5926219E+03
 3.3051658E+00  1.6038007E+03
 3.3272741E+00  1.6100936E+03
 3.3493822E+00  1.6162512E+03
 3.3714902E+00  1.6277324E+03
 3.3935983E+00  1.6388817E+03
 3.4157066E+00  1.6473234E+03
 3.4378147E+00  1.6568917E+03
 3.4599228E+00  1.6669534E+03
 3.4820309E+00  1.6765824E+03
 3.5041389E+00  1.6883009E+03
 3.5262473E+00  1.6951863E+03
 3.5483553E+00  1.7031125E+03
 3.5704634E+00  1.7122454E+03
 3.5925715E+00  1.7218569E+03
 3.6146798E+00  1.7300112E+03
 3.6367879E+00  1.7350327E+03
 3.6588960E+00  1.7420051E+03
 3.6810040E+00  1.7494905E+03
 3.7031121E+00  1.7544745E+03
 3.7252204E+00  1.7602393E+03
 3.7473285E+00  1.7643959E+03
 3.7694366E+00  1.7691875E+03
 3.7915447E+00  1.7759628E+03
 3.8136530E+00  1.7811088E+03
 3.8357611E+00  1.7869194E+03
 3.8578691E+00  1.7933024E+03
 3.8799772E+00  1.7986781E+03
 3.9020855E+00  1.8050063E+03
 3.9241936E+00  1.8104398E+03
 3.9463017E+00  1.8132213E+03
 3.9684098E+00  1.8168408E+03
 3.9905179E+00  1.8229807E+03
 4.0126262E+00  1.8264276E+03
 4.0347342E+00  1.8319794E+03
 4.0568423E+00  1.8396608E+03
 4.0789504E+00  1.8428467E+03
 4.1010585E+00  1.8462819E+03
 4.1231666E+00  1.8504471E+03
 4.1452751E+00  1.8541218E+03
 4.1673832E+00  1.8559979E+03
 4.1894913E+00  1.8581869E+03
 4.2115993E+00  1.8603494E+03
 4.2337074E+00  1.8634994E+03
 4.2558155E+00  1.8684995E+03
 4.2779236E+00  1.8726820E+03
 4.3000317E+00  1.8745813E+03
 4.3221397E+00  1.8787002E+03
 4.3442483E+00  1.8813246E+03
 4.3663564E+00  1.8817430E+03
 4.3884645E+00  1.8854540E+03
 4.4105725E+00  1.8909043E+03
 4.4326806E+00  1.8920044E+03
 4.4547887E+00  1.8939591E+03
 4.4768968E+00  1.8942487E+03
 4.4990048E+00  1.8942351E+03
 4.5211129E+00  1.8941539E+03
 4.5432215E+00  1.8956013E+03
 4.5653296E+00  1.8993762E+03
 4.5874376E+00  1.9026963E+03
 4.6095457E+00  1.9077952E+03
 4.6316538E+00  1.9080275E+03
 4.6537619E+00  1.9084253E+03
 4.6758699E+00  1.9071008E+03
 4.6979780E+00  1.9094719E+03
 4.7200866E+00  1.9118973E+03
 4.7421947E+00  1.9118422E+03
 4.7643027E+00  1.9106189E+03
 4.7864108E+00  1.9113188E+03
 4.8085189E+00  1.9130199E+03
 4.8306270E+00  1.9154926E+03
 4.8527350E+00  1.9153448E+03
 4.8748431E+00  1.9152157E+03
 4.8969512E+00  1.9144807E+03
 4.9190598E+00  1.9126799E+03
 4.9411678E+00  1.9147255E+03
 4.9632759E+00  1.9167025E+03
 4.9853840E+00  1.9175809E+03
 5.0074921E+00  1.9182739E+03
 5.0296001E+00  1.9214063E+03
 5.0517082E+00  1.9232607E+03
 5.0738163E+00  1.9237041E+03
 5.0959244E+00  1.9220880E+03
 5.1180329E+00  1.9234203E+03
 5.1401410E+00  1.9233263E+03
 5.1622491E+00  1.9238827E+03
 5.1843572E+00  1.9246616E+03
 5.2064652E+00  1.9248964E+03
 5.2285733E+00  1.9231140E+03
 5.2506814E+00  1.9217710E+03
 5.2727895E+00  1.9200521E+03
 5.2948980E+00  1.9205579E+03
 5.3170061E+00  1.9204313E+03
 5.3391142E+00  1.9175884E+03
 5.3612223E+00  1.9167734E+03
 5.3833303E+00  1.9188313E+03
 5.4054384E+00  1.9202410E+03
 5.4275465E+00  1.9206255E+03
 5.4496546E+00  1.9200525E+03
 5.4717627E+00  1.9195070E+03
 5.4938712E+00  1.9199888E+03
 5.5159793E+00  1.9193104E+03
 5.5380874E+00  1.9182051E+03
 5.5601954E+00  1.9162990E+03
 5.5823035E+00  1.9144298E+03
 5.6044116E+00  1.9155388E+03
 5.6265197E+00  1.9180718E+03
 5.6486278E+00  1.9191094E+03
 5.6707358E+00  1.9191555E+03
 5.6928444E+00  1.9193829E+03
 5.7149525E+00  1.9176708E+03
 5.7370605E+00  1.9150623E+03
 5.7591686E+00  1.9135717E+03
 5.7812767E+00  1.9141023E+03
 5.8033848E+00  1.9141592E+03
 5.8254929E+00  1.9137218E+03
 5.8476009E+00  1.9143734E+03
 5.8697095E+00  1.9130660E+03
 5.8918176E+00  1.9113116E+03
 5.9139256E+00  1.9117512E+03
 5.9360337E+00  1.9121731E+03
 5.9581418E+00  1.9113669E+03
 5.9802499E+00  1.9105211E+03
 6.0023580E+00  1.9085876E+03
 6.0244660E+00  1.9085995E+03
 6.0465741E+00  1.9085815E+03
 6.0686827E+00  1.9080818E+03
 6.0907907E+00  1.9074154E+03
 6.1128988E+00  1.9079512E+03
 6.1350069E+00  1.9089628E+03
 6.1571150E+00  1.9102625E+03
 6.1792231E+00  1.9093146E+03
 6.2013311E+00  1.9093586E+03
 6.2234392E+00  1.9078030E+03
 6.2455473E+00  1.9060587E+03
 6.2676558E+00  1.9045337E+03
 6.2897639E+00  1.9032705E+03
 6.3118720E+00  1.9018894E+03
 6.3339801E+00  1.9014795E+03
 6.3560882E+00  1.9020735E+03
 6.3781962E+00  1.9011288E+03
 6.4003043E+00  1.8998943E+03
 6.4224124E+00  1.9001053E+03
 6.4445205E+00  1.8991072E+03
 6.4666290E+00  1.8975222E+03
 6.4887371E+00  1.8969633E+03
 6.5108452E+00  1.8982141E+03
 6.5329533E+00  1.8978813E+03
 6.5550613E+00  1.8962073E+03
 6.5771694E+00  1.8967065E+03
 6.5992775E+00  1.8941606E+03
 6.6213856E+00  1.8942349E+03
 6.6434941E+00  1.8935205E+03
 6.6656022E+00  1.8913379E+03
 6.6877103E+00  1.8910726E+03
 6.7098184E+00  1.8910583E+03
 6.7319264E+00  1.8918387E+03
 6.7540345E+00  1.8915442E+03
 6.7761426E+00  1.8891635E+03
 6.7982507E+00  1.8871344E+03
 6.8203588E+00  1.8853636E+03
 6.8424673E+00  1.8851639E+03
 6.8645754E+00  1.8867952E+03
 6.8866835E+00  1.8855948E+03
 6.9087915E+00  1.8843149E+03
 6.9308996E+00  1.8861998E+03
 6.9530077E+00  1.8879841E+03
 6.9751158E+00  1.8869243E+03
 6.9972239E+00  1.8845227E+03
 7.0193319E+00  1.8834688E+03
 7.0414405E+00  1.8833687E+03
 7.0635486E+00  1.8835687E+03
 7.0856566E+00  1.8836716E+03
 7.1077647E+00  1.8812631E+03
 7.1298728E+00  1.8784470E+03
 7.1519809E+00  1.8773048E+03
 7.1740890E+00  1.8771111E+03
 7.1961970E+00  1.8770022E+03
 7.2183056E+00  1.8750315E+03
 7.2404137E+00  1.8733442E+03
 7.2625217E+00  1.8738060E+03
 7.2846298E+00  1.8752720E+03
 7.3067379E+00  1.8763801E+03
 7.3288460E+00  1.8764817E+03
 7.3509541E+00  1.8753755E+03
 7.3730621E+00  1.8738419E+03
 7.3951702E+00  1.8727251E+03
 7.4172788E+00  1.8721025E+03
 7.4393868E+00  1.8729521E+03
 7.4614949E+00  1.8717524E+03
 7.4836030E+00  1.8698204E+03
 7.5057111E+00  1.8709965E+03
 7.5278192E+00  1.8712572E+03
 7.5499272E+00  1.8696271E+03
 7.5720353E+00  1.8683497E+03
 7.5941434E+00  1.8695358E+03
 7.6162519E+00  1.8692006E+03
 7.6383600E+00  1.8689457E+03
 7.6604681E+00  1.8683395E+03
 7.6825762E+00  1.8681373E+03
 7.7046843E+00  1.8653662E+03
 7.7267923E+00  1.8638412E+03
 7.7489004E+00  1.8644178E+03
 7.7710085E+00  1.8671411E+03
 7.7931170E+00  1.8687860E+03
 7.8152251E+00  1.8669088E+03
 7.8373332E+00  1.8652643E+03
 7.8594413E+00  1.8645515E+03
 7.8815494E+00  1.8665831E+03
 7.9036574E+00  1.8703005E+03
 7.9257655E+00  1.8707299E+03
 7.9478736E+00  1.8685795E+03
 7.9699817E+00  1.8679043E+03
 7.9920902E+00  1.8682435E+03
 8.0141983E+00  1.8698315E+03
 8.0363064E+00  1.8730194E+03
 8.0584145E+00  1.8751117E+03
 8.0805225E+00  1.8761748E+03
 8.1026306E+00  1.8765316E+03
 8.1247387E+00  1.8767765E+03
 8.1468468E+00  1.8757493E+03
 8.1689548E+00  1.8744490E+03
 8.1910629E+00  1.8723339E+03
 8.2131710E+00  1.8701854E+03
 8.2352791E+00  1.8682753E+03
 8.2573872E+00  1.8681844E+03
 8.2794962E+00  1.8673741E+03
 8.3016043E+00  1.8667872E+03
 8.3237123E+00  1.8665568E+03
 8.3458204E+00  1.8672330E+03
 8.3679285E+00  1.8666671E+03
 8.3900366E+00  1.8671643E+03
 8.4121447E+00  1.8678505E+03
 8.4342527E+00  1.8682562E+03
 8.4563608E+00  1.8708180E+03
 8.4784689E+00  1.8728354E+03
 8.5005770E+00  1.8713793E+03
 8.5226851E+00  1.8702815E+03
 8.5447931E+00  1.8690129E+03
 8.5669012E+00  1.8673496E+03
 8.5890093E+00  1.8658048E+03
 8.6111174E+00  1.8656113E+03
 8.6332254E+00  1.8669341E+03
 8.6553335E+00  1.8661511E+03
 8.6774426E+00  1.8645500E+03
 8.6995506E+00  1.8640668E+03
 8.7216587E+00  1.8635033E+03
 8.7437668E+00  1.8642140E+03
 8.7658749E+00  1.8643176E+03
 8.7879829E+00  1.8654022E+03
 8.8100910E+00  1.8670676E+03
 8.8321991E+00  1.8658540E+03
 8.8543072E+00  1.8653579E+03
 8.8764153E+00  1.8680913E+03
 8.8985233E+00  1.8694608E+03
 8.9206314E+00  1.8695630E+03
 8.9427395E+00  1.8696783E+03
 8.9648476E+00  1.8699663E+03
 8.9869556E+00  1.8698405E+03
 9.0090637E+00  1.8704468E+03
 9.0311718E+00  1.8728369E+03
 9.0532808E+00  1.8743574E+03
 9.0753889E+00  1.8758381E+03
 9.0974970E+00  1.8780331E+03
 9.1196051E+00  1.8793938E+03
 9.1417131E+00  1.8808589E+03
 9.1638212E+00  1.8840924E+03
 9.1859293E+00  1.8872866E+03
 9.2080374E+00  1.8892579E+03
 9.2301455E+00  1.8912251E+03
 9.2522535E+00  1.8901860E+03
 9.2743616E+00  1.8910160E+03
 9.2964697E+00  1.8929751E+03
 9.3185778E+00  1.8917615E+03
 9.3406858E+00  1.8906628E+03
 9.3627939E+00  1.8888492E+03
 9.3849020E+00  1.8881714E+03
 9.4070101E+00  1.8895852E+03
 9.4291191E+00  1.8910968E+03
 9.4512272E+00  1.8906300E+03
 9.4733353E+00  1.8898837E+03
 9.4954433E+00  1.8924113E+03
 9.5175514E+00  1.8940857E+03
 9.5396595E+00  1.8943508E+03
 9.5617676E+00  1.8947887E+03
 9.5838757E+00  1.8966062E+03
 9.6059837E+00  1.8980579E+03
 9.6280918E+00  1.9008340E+03
 9.6501999E+00  1.9054314E+03
 9.6723080E+00  1.9113812E+03
 9.6944160E+00  1.9181445E+03
 9.7165241E+00  1.9273060E+03
 9.7386322E+00  1.9365396E+03
 9.7607403E+00  1.9387484E+03
 9.7828484E+00  1.9357506E+03
 9.8049564E+00  1.9338269E+03
 9.8270655E+00  1.9328549E+03
 9.8491735E+00  1.9326576E+03
 9.8712816E+00  1.9361859E+03
 9.8933897E+00  1.9414991E+03
 9.9154978E+00  1.9471738E+03
 9.9376059E+00  1.9508909E+03
 9.9597139E+00  1.9532209E+03
 9.9818220E+00  1.9570486E+03
 1.0003930E+01  1.9622512E+03
 1.0026038E+01  1.9691071E+03
 1.0048146E+01  1.9768519E+03
 1.0070254E+01  1.9854738E+03
 1.0092362E+01  1.9969199E+03
 1.0114470E+01  2.0092096E+03
 1.0136579E+01  2.0226718E+03
 1.0158687E+01  2.0412417E+03
 1.0180795E+01  2.0642480E+03
 1.0202904E+01  2.0884285E+03
 1.0225012E+01  2.1160386E+03
 1.0247120E+01  2.1467576E+03
 1.0269228E+01  2.1795627E+03
 1.0291336E+01  2.2126284E+03
 1.0313444E+01  2.2432815E+03
 1.0335552E+01  2.2632798E+03
 1.0357660E+01  2.2647041E+03
 1.0379768E+01  2.2477156E+03
 1.0401876E+01  2.2213953E+03
 1.0423985E+01  2.1902415E+03
 1.0446093E+01  2.1601216E+03
 1.0468201E+01  2.1341240E+03
 1.0490309E+01  2.1148020E+03
 1.0512417E+01  2.0990818E+03
 1.0534525E+01  2.0854907E+03
 1.0556633E+01  2.0763386E+03
 1.0578741E+01  2.0700051E+03
 1.0600850E+01  2.0658867E+03
 1.0622958E+01  2.0633091E+03
 1.0645066E+01  2.0620981E+03
 1.0667174E+01  2.0623149E+03
 1.0689282E+01  2.0655208E+03
 1.0711390E+01  2.0691858E+03
 1.0733499E+01  2.0726602E+03
 1.0755607E+01  2.0780942E+03
 1.0777715E+01  2.0837200E+03
 1.0799823E+01  2.0885959E+03
 1.0821931E+01  2.0948918E+03
 1.0844039E+01  2.1004951E+03
 1.0866147E+01  2.1051196E+03
 1.0888255E+01  2.1091897E+03
 1.0910363E+01  2.1115901E+03
 1.0932471E+01  2.1137725E+03
 1.0954579E+01  2.1142874E+03
 1.0976688E+01  2.1140435E+03
 1.0998796E+01  2.1130623E+03
 1.1020905E+01  2.1100090E+03
 1.1043013E+01  2.1096443E+03
 1.1065121E+01  2.1105818E+03
 1.1087229E+01  2.1106477E+03
 1.1109337E+01  2.1121689E+03
 1.1131445E+01  2.1161160E+03
 1.1153553E+01  2.1191584E+03
 1.1175661E+01  2.1214065E+03
 1.1197769E+01  2.1259607E+03
 1.1219877E+01  2.1307073E+03
 1.1241985E+01  2.1363867E+03
 1.1264093E+01  2.1444331E+03
 1.1286201E+01  2.1509878E+03
 1.1308310E+01  2.1559182E+03
 1.1330418E+01  2.1625938E+03
 1.1352527E+01  2.1682451E+03
 1.1374635E+01  2.1721853E+03
 1.1396743E+01  2.1724465E+03
 1.1418851E+01  2.1678484E+03
 1.1440959E+01  2.1591118E+03
 1.1463067E+01  2.1494868E+03
 1.1485175E+01  2.1399688E+03
 1.1507283E+01  2.1302422E+03
 1.1529391E+01  2.1204863E+03
 1.1551499E+01  2.1143689E+03
 1.1573607E+01  2.1071558E+03
 1.1595716E+01  2.0998755E+03
 1.1617824E+01  2.0953328E+03
 1.1639932E+01  2.0903391E+03
 1.1662040E+01  2.0844641E+03
 1.1684148E+01  2.0805613E+03
 1.1706256E+01  2.0753259E+03
 1.1728364E+01  2.0685261E+03
 1.1750473E+01  2.0671328E+03
 1.1772581E+01  2.0675737E+03
 1.1794689E+01  2.0692512E+03
 1.1816797E+01  2.0739973E+03
 1.1838905E+01  2.0783352E+03
 1.1861013E+01  2.0798386E+03
 1.1883121E+01  2.0807703E+03
 1.1905230E+01  2.0847495E+03
 1.1927338E+01  2.0886384E+03
 1.1949446E+01  2.0945212E+03
 1.1971554E+01  2.1043789E+03
 1.1993662E+01  2.1147197E+03
 1.2015770E+01  2.1245747E+03
 1.2037878E+01  2.1361052E+03
 1.2059986E+01  2.1454778E+03
 1.2082094E+01  2.1501406E+03
 1.2104202E+01  2.1522295E+03
 1.2126311E+01  2.1514451E+03
 1.2148419E+01  2.1482212E+03
 1.2170527E+01  2.1442524E+03
 1.2192636E+01  2.1393865E+03
 1.2214744E+01  2.1321824E+03
 1.2236852E+01  2.1240967E+03
 1.2258960E+01  2.1176897E+03
 1.2281068E+01  2.1117659E+03
 1.2303176E+01  2.1060945E+03
 1.2325284E+01  2.0990576E+03
 1.2347392E+01  2.0908940E+03
 1.2369500E+01  2.0819165E+03
 1.2391608E+01  2.0704500E+03
 1.2413716E+01  2.0566248E+03
 1.2435824E+01  2.0459709E+03
 1.2457932E+01  2.0370117E+03
 1.2480041E+01  2.0276910E+03
 1.2502149E+01  2.0179745E+03
 1.2524258E+01  2.0080024E+03
 1.2546366E+01  1.9995878E+03
 1.2568474E+01  1.9909639E+03
 1.2590582E+01  1.9849836E+03
 1.2612690E+01  1.9800398E+03
 1.2634798E+01  1.9761981E+03
 1.2656906E+01  1.9745426E+03
 1.2679014E+01  1.9728851E+03
 1.2701122E+01  1.9709998E+03
 1.2723230E+01  1.9695328E+03
 1.2745338E+01  1.9685443E+03
 1.2767447E+01  1.9668325E+03
 1.2789555E+01  1.9684387E+03
 1.2811663E+01  1.9694080E+03
 1.2833771E+01  1.9673401E+03
 1.2855879E+01  1.9649308E+03
 1.2877987E+01  1.9655520E+03
 1.2900096E+01  1.9666897E+03
 1.2922204E+01  1.9665758E+03
 1.2944312E+01  1.9647372E+03
 1.2966420E+01  1.9641559E+03
 1.2988528E+01  1.9627233E+03
 1.3010636E+01  1.9610852E+03
 1.3032744E+01  1.9599657E+03
 1.3054852E+01  1.9583169E+03
 1.3076961E+01  1.9580941E+03
 1.3099069E+01  1.9575259E+03
 1.3121177E+01  1.9576725E+03
 1.3143285E+01  1.9580059E+03
 1.3165393E+01  1.9584974E+03
 1.3187501E+01  1.9568248E+03
 1.3209609E+01  1.9560712E+03
 1.3231717E+01  1.9550491E+03
 1.3253825E+01  1.9544918E+03
 1.3275933E+01  1.9554124E+03
 1.3298042E+01  1.9555613E+03
 1.3320150E+01  1.9531847E+03
 1.3342258E+01  1.9536519E+03
 1.3364367E+01  1.9566282E+03
 1.3386475E+01  1.9596818E+03
 1.3408583E+01  1.9607050E+03
 1.3430691E+01  1.9605585E+03
 1.3452799E+01  1.9612977E+03
 1.3474907E+01  1.9607762E+03
 1.3497015E+01  1.9600602E+03
 1.3519123E+01  1.9601793E+03
 1.3541231E+01  1.9602609E+03
 1.3563339E+01  1.9615667E+03
 1.3585447E+01  1.9613284E+03
 1.3607555E+01  1.9615652E+03
 1.3629663E+01  1.9602170E+03
 1.3651772E+01  1.9606609E+03
 1.3673881E+01  1.9616072E+03
 1.3695989E+01  1.9628413E+03
 1.3718097E+01  1.9627509E+03
 1.3740205E+01  1.9636892E+03
 1.3762313E+01  1.9665035E+03
 1.3784421E+01  1.9692230E+03
 1.3806529E+01  1.9705944E+03
 1.3828637E+01  1.9719503E+03
 1.3850745E+01  1.9706556E+03
 1.3872853E+01  1.9691191E+03
 1.3894961E+01  1.9687047E+03
 1.3917069E+01  1.9688088E+03
 1.3939178E+01  1.9684408E+03
 1.3961286E+01  1.9687347E+03
 1.3983394E+01  1.9694203E+03
 1.4005502E+01  1.9701401E+03
 1.4027610E+01  1.9707058E+03
 1.4049719E+01  1.9708420E+03
 1.4071827E+01  1.9710061E+03
 1.4093935E+01  1.9710463E+03
 1.4116043E+01  1.9717874E+03
 1.4138151E+01  1.9741110E+03
 1.4160259E+01  1.9752354E+03
 1.4182367E+01  1.9754595E+03
 1.4204475E+01  1.9755784E+03
 1.4226583E+01  1.9762196E+03
 1.4248692E+01  1.9771204E+03
 1.4270800E+01  1.9780796E+03
 1.4292908E+01  1.9774932E+03
 1.4315016E+01  1.9779298E+03
 1.4337124E+01  1.9787725E+03
 1.4359232E+01  1.9788528E+03
 1.4381340E+01  1.9795288E+03
 1.4403448E+01  1.9808292E+03
 1.4425556E+01  1.9817988E+03
 1.4447665E+01  1.9840016E+03
 1.4469773E+01  1.9849341E+03
 1.4491881E+01  1.9871860E+03
 1.4513989E+01  1.9890792E+03
 1.4536098E+01  1.9906295E+03
 1.4558206E+01  1.9940083E+03
 1.4580314E+01  1.9958033E+03
 1.4602422E+01  1.9978494E+03
 1.4624530E+01  1.9992010E+03
 1.4646638E+01  2.0001404E+03
 1.4668746E+01  2.0020304E+03
 1.4690854E+01  2.0022008E+03
 1.4712962E+01  2.0018109E+03
 1.4735070E+01  2.0026116E+03
 1.4757178E+01  2.0033846E+03
 1.4779286E+01  2.0042262E+03
 1.4801394E+01  2.0056859E+03
 1.4823503E+01  2.0062135E+03
 1.4845612E+01  2.0067700E+03
 1.4867720E+01  2.0083153E+03
 1.4889828E+01  2.0092714E+03
 1.4911936E+01  2.0078748E+03
 1.4934044E+01  2.0059493E+03
 1.4956152E+01  2.0044893E+03
 1.4978260E+01  2.0044884E+03
 1.5000368E+01  2.0049617E+03
 1.5022476E+01  2.0044397E+03
 1.5044584E+01  2.0040049E+03
 1.5066692E+01  2.0044774E+03
 1.5088800E+01  2.0067272E+03
 1.5110909E+01  2.0073264E+03
 1.5133017E+01  2.0065774E+03
 1.5155125E+01  2.0059207E+03
 1.5177233E+01  2.0070541E+03
 1.5199341E+01  2.0078654E+03
 1.5221450E+01  2.0075477E+03
 1.5243558E+01  2.0066891E+03
 1.5265666E+01  2.0078097E+03
 1.5287774E+01  2.0084508E+03
 1.5309882E+01  2.0096528E+03
 1.5331990E+01  2.0096611E+03
 1.5354098E+01  2.0094553E+03
 1.5376206E+01  2.0104413E+03
 1.5398314E+01  2.0112607E+03
 1.5420423E+01  2.0129059E+03
 1.5442531E+01  2.0125048E+03
 1.5464639E+01  2.0109824E+03
 1.5486747E+01  2.0110098E+03
 1.5508855E+01  2.0115345E+03
 1.5530963E+01  2.0130103E+03
 1.5553071E+01  2.0138501E+03
 1.5575179E+01  2.0142659E+03
 1.5597288E+01  2.0139688E+03
 1.5619396E+01  2.0162285E+03
 1.5641504E+01  2.0164393E+03
 1.5663612E+01  2.0157645E+03
 1.5685720E+01  2.0174207E+03
 1.5707829E+01  2.0178788E+03
 1.5729937E+01  2.0180675E+03
 1.5752045E+01  2.0183661E+03
 1.5774153E+01  2.0185400E+03
 1.5796261E+01  2.0181930E+03
 1.5818369E+01  2.0194133E+03
 1.5840477E+01  2.0207986E+03
 1.5862585E+01  2.0241968E+03
 1.5884693E+01  2.0266757E+03
 1.5906801E+01  2.0299709E+03
 1.5928909E+01  2.0347631E+03
 1.5951017E+01  2.0393654E+03
 1.5973126E+01  2.0433798E+03
 1.5995234E+01  2.0443384E+03
 1.6017342E+01  2.0422594E+03
 1.6039450E+01  2.0382264E+03
 1.6061558E+01  2.0353492E+03
 1.6083666E+01  2.0327162E+03
 1.6105774E+01  2.0303556E+03
 1.6127882E+01  2.0290813E+03
 1.6149990E+01  2.0280071E+03
 1.6172100E+01  2.0277069E+03
 1.6194208E+01  2.0279469E+03
 1.6216316E+01  2.0282875E+03
 1.6238424E+01  2.0295251E+03
 1.6260532E+01  2.0298011E+03
 1.6282640E+01  2.0291510E+03
 1.6304749E+01  2.0298965E+03
 1.6326857E+01  2.0304314E+03
 1.6348965E+01  2.0299432E+03
 1.6371073E+01  2.0303090E+03
 1.6393181E+01  2.0299592E+03
 1.6415289E+01  2.0314830E+03
 1.6437397E+01  2.0334790E+03
 1.6459505E+01  2.0340547E+03
 1.6481613E+01  2.0367628E+03
 1.6503721E+01  2.0403506E+03
 1.6525829E+01  2.0425088E+03
 1.6547937E+01  2.0467319E+03
 1.6570045E+01  2.0522041E+03
 1.6592154E+01  2.0603997E+03
 1.6614262E+01  2.0710261E+03
 1.6636370E+01  2.0821675E+03
 1.6658478E+01  2.0945974E+03
 1.6680586E+01  2.1050176E+03
 1.6702694E+01  2.1094016E+03
 1.6724802E+01  2.1085669E+03
 1.6746910E+01  2.1035791E+03
 1.6769018E+01  2.0942366E+03
 1.6791126E+01  2.0837241E+03
 1.6813234E+01  2.0738127E+03
 1.6835342E+01  2.0663572E+03
 1.6857450E+01  2.0604451E+03
 1.6879559E+01  2.0556099E+03
 1.6901667E+01  2.0524436E+03
 1.6923775E+01  2.0506738E+03
 1.6945885E+01  2.0499497E+03
 1.6967993E+01  2.0492981E+03
 1.6990101E+01  2.0497847E+03
 1.7012209E+01  2.0483184E+03
 1.7034317E+01  2.0465313E+03
 1.7056425E+01  2.0431869E+03
 1.7078533E+01  2.0396216E+03
 1.7100641E+01  2.0354583E+03
 1.7122749E+01  2.0322218E+03
 1.7144857E+01  2.0306689E+03
 1.7166965E+01  2.0290770E+03
 1.7189074E+01  2.0282487E+03
 1.7211182E+01  2.0274399E+03
 1.7233290E+01  2.0248175E+03
 1.7255398E+01  2.0231165E+03
 1.7277506E+01  2.0213738E+03
 1.7299614E+01  2.0203342E+03
 1.7321722E+01  2.0187487E+03
 1.7343830E+01  2.0178900E+03
 1.7365938E+01  2.0177173E+03
 1.7388046E+01  2.0167267E+03
 1.7410154E+01  2.0152328E+03
 1.7432262E+01  2.0143929E+03
 1.7454370E+01  2.0122773E+03
 1.7476479E+01  2.0104536E+03
 1.7498587E+01  2.0112681E+03
 1.7520695E+01  2.0123772E+03
 1.7542803E+01  2.0116655E+03
 1.7564911E+01  2.0114337E+03
 1.7587019E+01  2.0129521E+03
 1.7609127E+01  2.0127961E+03
 1.7631235E+01  2.0122839E+03
 1.7653343E+01  2.0129685E+03
 1.7675451E+01  2.0128737E+03
 1.7697559E+01  2.0144620E+03
 1.7719669E+01  2.0163822E+03
 1.7741777E+01  2.0166260E+03
 1.7763885E+01  2.0173936E+03
 1.7785994E+01  2.0176421E+03
 1.7808102E+01  2.0169283E+03
 1.7830210E+01  2.0147960E+03
 1.7852318E+01  2.0083491E+03
 1.7874426E+01  2.0026801E+03
 1.7896534E+01  1.9983544E+03
 1.7918642E+01  1.9954427E+03
 1.7940750E+01  1.9909684E+03
 1.7962858E+01  1.9862363E+03
 1.7984966E+01  1.9832573E+03
 1.8007074E+01  1.9797264E+03
 1.8029182E+01  1.9760310E+03
 1.8051291E+01  1.9730986E+03
 1.8073399E+01  1.9693219E+03
 1.8095507E+01  1.9664465E+03
 1.8117615E+01  1.9641597E+03
 1.8139723E+01  1.9598522E+03
 1.8161831E+01  1.9556208E+03
 1.8183939E+01  1.9522216E+03
 1.8206047E+01  1.9498229E+03
 1.8228155E+01  1.9477198E+03
 1.8250263E+01  1.9456550E+03
 1.8272371E+01  1.9422102E+03
 1.8294479E+01  1.9389039E+03
 1.8316587E+01  1.9372279E+03
 1.8338696E+01  1.9366028E+03
 1.8360804E+01  1.9333312E+03
 1.8382912E+01  1.9303390E+03
 1.8405020E+01  1.9290405E+03
 1.8427128E+01  1.9272289E+03
 1.8449236E+01  1.9247841E+03
 1.8471344E+01  1.9236683E+03
 1.8493454E+01  1.9217421E+03
 1.8515562E+01  1.9205842E+03
 1.8537670E+01  1.9193435E+03
 1.8559778E+01  1.9179354E+03
 1.8581886E+01  1.9159911E+03
 1.8603994E+01  1.9135013E+03
 1.8626102E+01  1.9109982E+03
 1.8648211E+01  1.9088511E+03
 1.8670319E+01  1.9072480E+03
 1.8692427E+01  1.9065468E+03
 1.8714535E+01  1.9053628E+03
 1.8736643E+01  1.9017891E+03
 1.8758751E+01  1.8980674E+03
 1.8780859E+01  1.8979822E+03
 1.8802967E+01  1.8976569E+03
 1.8825075E+01  1.8973983E+03
 1.8847183E+01  1.8974264E+03
 1.8869291E+01  1.8952319E+03
 1.8891399E+01  1.8933035E+03
 1.8913507E+01  1.8924692E+03
 1.8935616E+01  1.8909784E+03
 1.8957724E+01  1.8895621E+03
 1.8979832E+01  1.8871196E+03
 1.9001940E+01  1.8854576E+03
 1.9024048E+01  1.8848921E+03
 1.9046156E+01  1.8831932E+03
 1.9068264E+01  1.8802489E+03
 1.9090372E+01  1.8778971E+03
 1.9112480E+01  1.8780930E+03
 1.9134588E+01  1.8776302E+03
 1.9156696E+01  1.8757877E+03
 1.9178804E+01  1.8739153E+03
 1.9200912E+01  1.8733827E+03
 1.9223021E+01  1.8733829E+03
 1.9245131E+01  1.8721116E+03
 1.9267239E+01  1.8695140E+03
 1.9289347E+01  1.8682830E+03
 1.9311455E+01  1.8678702E+03
 1.9333563E+01  1.8668445E+03
 1.9355671E+01  1.8655381E+03
 1.9377779E+01  1.8662262E+03
 1.9399887E+01  1.8664425E+03
 1.9421995E+01  1.8673998E+03
 1.9444103E+01  1.8678185E+03
 1.9466211E+01  1.8658330E+03
 1.9488319E+01  1.8658463E+03
 1.9510427E+01  1.8646891E+03
 1.9532536E+01  1.8649196E+03
 1.9554644E+01  1.8653937E+03
 1.9576752E+01  1.8653994E+03
 1.9598860E+01  1.8656714E+03
 1.9620968E+01  1.8650442E+03
 1.9643076E+01  1.8641744E+03
 1.9665184E+01  1.8627478E+03
 1.9687292E+01  1.8616404E+03
 1.9709400E+01  1.8615297E+03
 1.9731508E+01  1.8601080E+03
 1.9753616E+01  1.8596892E+03
 1.9775724E+01  1.8599622E+03
 1.9797832E+01  1.8600564E+03
 1.9819941E+01  1.8590187E+03
 1.9842049E+01  1.8567533E+03
 1.9864157E+01  1.8556854E+03
 1.9886265E+01  1.8551783E+03
 1.9908373E+01  1.8536490E+03
 1.9930481E+01  1.8499685E+03
 1.9952589E+01  1.8482440E+03
 1.9974697E+01  1.8480604E+03
 1.9996805E+01  1.8482454E+03
 2.0018915E+01  1.8465687E+03
 2.0041023E+01  1.8426744E+03
 2.0063131E+01  1.8399626E+03
 2.0085239E+01  1.8378502E+03
 2.0107347E+01  1.8347874E+03
 2.0129456E+01  1.8318281E+03
 2.0151564E+01  1.8293397E+03
 2.0173672E+01  1.8273021E+03
 2.0195780E+01  1.8227865E+03
 2.0217888E+01  1.8184910E+03
 2.0239996E+01  1.8158867E+03
 2.0262104E+01  1.8140701E+03
 2.0284212E+01  1.8115059E+03
 2.0306320E+01  1.8076577E+03
 2.0328428E+01  1.8045591E+03
 2.0350536E+01  1.8024529E+03
 2.0372644E+01  1.8002692E+03
 2.0394753E+01  1.7971769E+03
 2.0416861E+01  1.7945105E+03
 2.0438969E+01  1.7921152E+03
 2.0461077E+01  1.7904034E+03
 2.0483185E+01  1.7881305E+03
 2.0505293E+01  1.7853251E+03
 2.0527401E+01  1.7829586E+03
 2.0549509E+01  1.7807368E+03
 2.0571617E+01  1.7786565E+03
 2.0593725E+01  1.7771914E+03
 2.0615833E+01  1.7756362E+03
 2.0637941E+01  1.7729061E+03
 2.0660049E+01  1.7704446E+03
 2.0682158E+01  1.7688998E+03
 2.0704266E+01  1.7679113E+03
 2.0726374E+01  1.7659208E+03
 2.0748482E+01  1.7633639E+03
 2.0770590E+01  1.7613325E+03
 2.0792700E+01  1.7596853E+03
 2.0814808E+01  1.7566144E+03
 2.0836916E+01  1.7536926E+03
 2.0859024E+01  1.7509603E+03
 2.0881132E+01  1.7477074E+03
 2.0903240E+01  1.7454841E+03
 2.0925348E+01  1.7438104E+03
 2.0947456E+01  1.7416534E+03
 2.0969564E+01  1.7370234E+03
 2.0991673E+01  1.7340697E+03
 2.1013781E+01  1.7314729E+03
 2.1035889E+01  1.7276573E+03
 2.1057997E+01  1.7258705E+03
 2.1080105E+01  1.7248735E+03
 2.1102213E+01  1.7231772E+03
 2.1124321E+01  1.7212550E+03
 2.1146429E+01  1.7201631E+03
 2.1168537E+01  1.7181327E+03
 2.1190645E+01  1.7150527E+03
 2.1212753E+01  1.7143164E+03
 2.1234861E+01  1.7134785E+03
 2.1256969E+01  1.7109044E+03
 2.1279078E+01  1.7089996E+03
 2.1301186E+01  1.7086797E+03
 2.1323294E+01  1.7051671E+03
 2.1345402E+01  1.7004034E+03
 2.1367510E+01  1.6986520E+03
 2.1389618E+01  1.6966235E+03
 2.1411726E+01  1.6940673E+03
 2.1433834E+01  1.6919523E+03
 2.1455942E+01  1.6907791E+03
 2.1478050E+01  1.6883005E+03
 2.1500158E+01  1.6859659E+03
 2.1522266E+01  1.6836113E+03
 2.1544374E+01  1.6812974E+03
 2.1566484E+01  1.6795293E+03
 2.1588593E+01  1.6770753E+03
 2.1610701E+01  1.6737231E+03
 2.1632809E+01  1.6722700E+03
 2.1654917E+01  1.6711230E+03
 2.1677025E+01  1.6684974E+03
 2.1699133E+01  1.6671213E+03
 2.1721241E+01  1.6648713E+03
 2.1743349E+01  1.6620947E+03
 2.1765457E+01  1.6600011E+03
 2.1787565E+01  1.6591826E+03
 2.1809673E+01  1.6563514E+03
 2.1831781E+01  1.6539829E+03
 2.1853889E+01  1.6535321E+03
 2.1875998E+01  1.6520897E+03
 2.1898106E+01  1.6485364E+03
 2.1920214E+01  1.6474446E+03
 2.1942322E+01  1.6469354E+03
 2.1964430E+01  1.6448273E+03
 2.1986538E+01  1.6445868E+03
 2.2008646E+01  1.6437623E+03
 2.2030754E+01  1.6412559E+03
 2.2052862E+01  1.6392285E+03
 2.2074970E+01  1.6376411E+03
 2.2097078E+01  1.6362130E+03
 2.2119186E+01  1.6352019E+03
 2.2141294E+01  1.6342767E+03
 2.2163403E+01  1.6323899E+03
 2.2185511E+01  1.6299329E+03
 2.2207619E+01  1.6282987E+03
 2.2229727E+01  1.6279280E+03
 2.2251835E+01  1.6263922E+03
 2.2273943E+01  1.6241838E+03
 2.2296051E+01  1.6226189E+03
 2.2318159E+01  1.6225760E+03
 2.2340269E+01  1.6213885E+03
 2.2362377E+01  1.6205055E+03
 2.2384485E+01  1.6195660E+03
 2.2406593E+01  1.6185155E+03
 2.2428701E+01  1.6167261E+03
 2.2450809E+01  1.6162114E+03
 2.2472918E+01  1.6148328E+03
 2.2495026E+01  1.6136890E+03
 2.2517134E+01  1.6130374E+03
 2.2539242E+01  1.6112380E+03
 2.2561350E+01  1.6092733E+03
 2.2583458E+01  1.6083149E+03
 2.2605566E+01  1.6064250E+03
 2.2627674E+01  1.6046682E+03
 2.2649782E+01  1.6040302E+03
 2.2671890E+01  1.6025670E+03
 2.2693998E+01  1.6012878E+03
 2.2716106E+01  1.5991595E+03
 2.2738214E+01  1.5970403E+03
 2.2760323E+01  1.5956440E+03
 2.2782431E+01  1.5936841E+03
 2.2804539E+01  1.5915802E+03
 2.2826647E+01  1.5910759E+03
 2.2848755E+01  1.5885758E+03
 2.2870863E+01  1.5878434E+03
 2.2892971E+01  1.5868167E+03
 2.2915079E+01  1.5844901E+03
 2.2937187E+01  1.5828116E+03
 2.2959295E+01  1.5823431E+03
 2.2981403E+01  1.5776735E+03
 2.3003511E+01  1.5761235E+03
 2.3025620E+01  1.5748075E+03
 2.3047728E+01  1.5726199E+03
 2.3069836E+01  1.5722614E+03
 2.3091946E+01  1.5707622E+03
 2.3114054E+01  1.5672629E+03
 2.3136162E+01  1.5385100E+03
 2.3158270E+01  1.4487311E+03
 2.3180378E+01  1.3656274E+03
 2.3202486E+01  1.3072262E+03
 2.3224594E+01  1.2721947E+03
 2.3246702E+01  1.2391128E+03
 2.3268810E+01  1.2028779E+03
 2.3290918E+01  1.1678031E+03
 2.3313026E+01  1.1580735E+03
 2.3335135E+01  1.1400079E+03
 2.3357243E+01  1.1217153E+03
 2.3379351E+01  1.1020350E+03
 2.3401459E+01  1.0853730E+03
 2.3423567E+01  1.0663304E+03
 2.3445675E+01  1.0502109E+03
 2.3467783E+01  1.0354427E+03
 2.3489891E+01  1.0200889E+03
 2.3511999E+01  1.0086302E+03
 2.3534107E+01  1.0098408E+03
 2.3556215E+01  1.0036399E+03
 2.3578323E+01  9.9843274E+02
 2.3600431E+01  9.9065930E+02
 2.3622540E+01  9.8494055E+02
 2.3644648E+01  9.7692224E+02
 2.3666756E+01  9.7121198E+02
 2.3688864E+01  9.6372345E+02
 2.3710972E+01  9.5897406E+02
 2.3733080E+01  9.5258307E+02
 2.3755188E+01  9.4789349E+02
 2.3777296E+01  9.4470953E+02
 2.3799404E+01  9.4322510E+02
 2.3821512E+01  9.4073273E+02
 2.3843620E+01  9.3850128E+02
 2.3865730E+01  9.3875592E+02
 2.3887838E+01  9.3698907E+02
 2.3909946E+01  9.3695245E+02
 2.3932055E+01  9.3604224E+02
 2.3954163E+01  9.3581354E+02
 2.3976271E+01  9.3460382E+02
 2.3998379E+01  9.3482281E+02
 2.4020487E+01  9.3364935E+02
 2.4042595E+01  9.3410767E+02
 2.4064703E+01  9.3004822E+02
 2.4086811E+01  9.2859369E+02
 2.4108919E+01  9.2287701E+02
 2.4131027E+01  9.1642230E+02
 2.4153135E+01  9.1111560E+02
 2.4175243E+01  9.0160443E+02
 2.4197351E+01  8.9242560E+02
 2.4219460E+01  8.8255109E+02
 2.4241568E+01  8.6957690E+02
 2.4263676E+01  8.5817523E+02
 2.4285784E+01  8.4625122E+02
 2.4307892E+01  8.3287567E+02
 2.4330000E+01  8.1842590E+02
 2.4352108E+01  8.0353876E+02
 2.4374216E+01  7.8660968E+02
 2.4396324E+01  7.6852808E+02
 2.4418432E+01  7.4955835E+02
 2.4440540E+01  7.3875110E+02
 2.4462648E+01  7.2075262E+02
 2.4484756E+01  6.9792023E+02
 2.4506865E+01  6.7735699E+02
 2.4528973E+01  6.4630981E+02
 2.4551081E+01  6.2366974E+02
 2.4573189E+01  5.8228815E+02
 2.4595297E+01  5.4431226E+02
 2.4617405E+01  4.9853058E+02
 2.4639515E+01  4.6780313E+02
 2.4661623E+01  4.3113187E+02
 2.4683731E+01  3.8300385E+02
 2.4705839E+01  3.2258069E+02
 2.4727947E+01  2.4593994E+02
 2.4750055E+01  1.2328381E+02
 2.4772163E+01  2.1346838E+01
 2.4794271E+01  3.4631886E-02
 2.4816380E+01  0.0000000E+00
 2.4838488E+01  0.0000000E+00
 2.4860596E+01  0.0000000E+00
 2.4882704E+01  0.0000000E+00
 2.4904812E+01  0.0000000E+00
 2.4926920E+01  0.0000000E+00
 2.4949028E+01  0.0000000E+00
 2.4971136E+01  0.0000000E+00
 2.4993244E+01  0.0000000E+00
 2.5015352E+01  0.0000000E+00
 2.5037460E+01  0.0000000E+00
 2.5059568E+01  0.0000000E+00
 2.5081676E+01  0.0000000E+00
 2.5103785E+01  0.0000000E+00
 2.5125893E+01  0.0000000E+00
 2.5148001E+01  0.0000000E+00
 2.5170109E+01  0.0000000E+00
 2.5192217E+01  0.0000000E+00
 2.5214325E+01  0.0000000E+00
 2.5236433E+01  0.0000000E+00
 2.5258541E+01  0.0000000E+00
 2.5280649E+01  0.0000000E+00
 2.5302757E+01  0.0000000E+00
 2.5324865E+01  0.0000000E+00
 2.5346973E+01  0.0000000E+00
 2.5369081E+01  0.0000000E+00
 2.5391190E+01  0.0000000E+00
 2.5413300E+01  0.0000000E+00
 2.5435408E+01  0.0000000E+00
 2.5457516E+01  0.0000000E+00
 2.5479624E+01  0.0000000E+00
 2.5501732E+01  0.0000000E+00
 2.5523840E+01  0.0000000E+00
 2.5545948E+01  0.0000000E+00
 2.5568056E+01  0.0000000E+00
 2.5590164E+01  0.0000000E+00
 2.5612272E+01  0.0000000E+00
 2.5634380E+01  0.0000000E+00
 2.5656488E+01  0.0000000E+00
 2.5678596E+01  0.0000000E+00
 2.5700705E+01  0.0000000E+00
 2.5722813E+01  0.0000000E+00
 2.5744921E+01  0.0000000E+00
 2.5767029E+01  0.0000000E+00
 2.5789137E+01  0.0000000E+00
 2.5811245E+01  0.0000000E+00
 2.5833353E+01  0.0000000E+00
 2.5855461E+01  0.0000000E+00
 2.5877569E+01  0.0000000E+00
 2.5899677E+01  0.0000000E+00
 2.5921785E+01  0.0000000E+00
 2.5943893E+01  0.0000000E+00
 2.5966002E+01  0.0000000E+00
 2.5988110E+01  0.0000000E+00
 2.6010218E+01  0.0000000E+00
 2.6032326E+01  0.0000000E+00
 2.6054434E+01  0.0000000E+00
 2.6076542E+01  0.0000000E+00
 2.6098650E+01  0.0000000E+00
 2.6120758E+01  0.0000000E+00
 2.6142866E+01  0.0000000E+00
 2.6164974E+01  0.0000000E+00
 2.6187084E+01  0.0000000E+00
 2.6209192E+01  0.0000000E+00
 2.6231300E+01  0.0000000E+00
 2.6253408E+01  0.0000000E+00
 2.6275517E+01  0.0000000E+00
 2.6297625E+01  0.0000000E+00
 2.6319733E+01  0.0000000E+00
 2.6341841E+01  0.0000000E+00
 2.6363949E+01  0.0000000E+00
 2.6386057E+01  0.0000000E+00
 2.6408165E+01  0.0000000E+00
 2.6430273E+01  0.0000000E+00
 2.6452381E+01  0.0000000E+00
 2.6474489E+01  0.0000000E+00
 2.6496597E+01  0.0000000E+00
 2.6518705E+01  0.0000000E+00
 2.6540813E+01  0.0000000E+00
 2.6562922E+01  0.0000000E+00
 2.6585030E+01  0.0000000E+00
 2.6607138E+01  0.0000000E+00
 2.6629246E+01  0.0000000E+00
 2.6651354E+01  0.0000000E+00
 2.6673462E+01  0.0000000E+00
 2.6695570E+01  0.0000000E+00
 2.6717678E+01  0.0000000E+00
 2.6739786E+01  0.0000000E+00
 2.6761894E+01  0.0000000E+00
 2.6784002E+01  0.0000000E+00
 2.6806110E+01  0.0000000E+00
 2.6828218E+01  0.0000000E+00
 2.6850327E+01  0.0000000E+00
 2.6872435E+01  0.0000000E+00
 2.6894543E+01  0.0000000E+00
 2.6916651E+01  0.0000000E+00
 2.6938761E+01  0.0000000E+00
 2.6960869E+01  0.0000000E+00
 2.6982977E+01  0.0000000E+00
 2.7005085E+01  0.0000000E+00
 2.7027193E+01  0.0000000E+00
 2.7049301E+01  0.0000000E+00
 2.7071409E+01  0.0000000E+00
 2.7093517E+01  0.0000000E+00
 2.7115625E+01  0.0000000E+00
 2.7137733E+01  0.0000000E+00
 2.7159842E+01  0.0000000E+00
 2.7181950E+01  0.0000000E+00
 2.7204058E+01  0.0000000E+00
 2.7226166E+01  0.0000000E+00
 2.7248274E+01  0.0000000E+00
 2.7270382E+01  0.0000000E+00
 2.7292490E+01  0.0000000E+00
 2.7314598E+01  0.0000000E+00
 2.7336706E+01  0.0000000E+00
 2.7358814E+01  0.0000000E+00
 2.7380922E+01  0.0000000E+00
 2.7403030E+01  0.0000000E+00
 2.7425138E+01  0.0000000E+00
 2.7447247E+01  0.0000000E+00
 2.7469355E+01  0.0000000E+00
 2.7491463E+01  0.0000000E+00
 2.7513571E+01  0.0000000E+00
 2.7535679E+01  0.0000000E+00
 2.7557787E+01  0.0000000E+00
 2.7579895E+01  0.0000000E+00
 2.7602003E+01  0.0000000E+00
 2.7624111E+01  0.0000000E+00
 2.7646219E+01  0.0000000E+00
 2.7668327E+01  0.0000000E+00
 2.7690435E+01  0.0000000E+00
 2.7712545E+01  0.0000000E+00
 2.7734653E+01  0.0000000E+00
 2.7756762E+01  0.0000000E+00
 2.7778870E+01  0.0000000E+00
 2.7800978E+01  0.0000000E+00
 2.7823086E+01  0.0000000E+00
 2.7845194E+01  0.0000000E+00
 2.7867302E+01  0.0000000E+00
 2.7889410E+01  0.0000000E+00
 2.7911518E+01  0.0000000E+00
 2.7933626E+01  0.0000000E+00
 2.7955734E+01  0.0000000E+00
 2.7977842E+01  0.0000000E+00
 2.7999950E+01  0.0000000E+00
 2.8022058E+01  0.0000000E+00
 2.8044167E+01  0.0000000E+00
 2.8066275E+01  0.0000000E+00
 2.8088383E+01  0.0000000E+00
 2.8110491E+01  0.0000000E+00
 2.8132599E+01  0.0000000E+00
 2.8154707E+01  0.0000000E+00
 2.8176815E+01  0.0000000E+00
 2.8198923E+01  0.0000000E+00
 2.8221031E+01  0.0000000E+00
 2.8243139E+01  0.0000000E+00
 2.8265247E+01  0.0000000E+00
 2.8287355E+01  0.0000000E+00
 2.8309464E+01  0.0000000E+00
 2.8331572E+01  0.0000000E+00
 2.8353680E+01  0.0000000E+00
 2.8375788E+01  0.0000000E+00
 2.8397896E+01  0.0000000E+00
 2.8420004E+01  0.0000000E+00
 2.8442112E+01  0.0000000E+00
 2.8464220E+01  0.0000000E+00
 2.8486330E+01  0.0000000E+00
 2.8508438E+01  0.0000000E+00
 2.8530546E+01  0.0000000E+00
 2.8552654E+01  0.0000000E+00
 2.8574762E+01  0.0000000E+00
 2.8596870E+01  0.0000000E+00
 2.8618979E+01  0.0000000E+00
 2.8641087E+01  0.0000000E+00
 2.8663195E+01  0.0000000E+00
 2.8685303E+01  0.0000000E+00
 2.8707411E+01  0.0000000E+00
 2.8729519E+01  0.0000000E+00
 2.8751627E+01  0.0000000E+00
 2.8773735E+01  0.0000000E+00
 2.8795843E+01  0.0000000E+00
 2.8817951E+01  0.0000000E+00
 2.8840059E+01  0.0000000E+00
 2.8862167E+01  0.0000000E+00
 2.8884275E+01  0.0000000E+00
 2.8906384E+01  0.0000000E+00
 2.8928492E+01  0.0000000E+00
 2.8950600E+01  0.0000000E+00
 2.8972708E+01  0.0000000E+00
 2.8994816E+01  0.0000000E+00
 2.9016924E+01  0.0000000E+00
 2.9039032E+01  0.0000000E+00
 2.9061140E+01  0.0000000E+00
 2.9083248E+01  0.0000000E+00
 2.9105356E+01  0.0000000E+00
 2.9127464E+01  0.0000000E+00
 2.9149572E+01  0.0000000E+00
 2.9171680E+01  0.0000000E+00
 2.9193789E+01  0.0000000E+00
 2.9215897E+01  0.0000000E+00
 2.9238005E+01  0.0000000E+00
 2.9260115E+01  0.0000000E+00
 2.9282223E+01  0.0000000E+00
 2.9304331E+01  0.0000000E+00
 2.9326439E+01  0.0000000E+00
 2.9348547E+01  0.0000000E+00
 2.9370655E+01  0.0000000E+00
 2.9392763E+01  0.0000000E+00
 2.9414871E+01  0.0000000E+00
 2.9436979E+01  0.0000000E+00
 2.9459087E+01  0.0000000E+00
 2.9481195E+01  0.0000000E+00
 2.9503304E+01  0.0000000E+00
 2.9525412E+01  0.0000000E+00
 2.9547520E+01  0.0000000E+00
 2.9569628E+01  0.0000000E+00
 2.9591736E+01  0.0000000E+00
 2.9613844E+01  0.0000000E+00
 2.9635952E+01  0.0000000E+00
 2.9658060E+01  0.0000000E+00
 2.9680168E+01  0.0000000E+00
 2.9702276E+01  0.0000000E+00
 2.9724384E+01  0.0000000E+00
 2.9746492E+01  0.0000000E+00
 2.9768600E+01  0.0000000E+00
 2.9790709E+01  0.0000000E+00
 2.9812817E+01  0.0000000E+00
 2.9834925E+01  0.0000000E+00
 2.9857033E+01  0.0000000E+00
 2.9879141E+01  0.0000000E+00
 2.9901249E+01  0.0000000E+00
 2.9923357E+01  0.0000000E+00
 2.9945465E+01  0.0000000E+00
 2.9967573E+01  0.0000000E+00
 2.9989681E+01  0.0000000E+00
 3.0011789E+01  0.0000000E+00
 3.0033899E+01  0.0000000E+00
 3.0056007E+01  0.0000000E+00
 3.0078115E+01  0.0000000E+00
 3.0100224E+01  0.0000000E+00
 3.0122332E+01  0.0000000E+00
 3.0144440E+01  0.0000000E+00
 3.0166548E+01  0.0000000E+00
 3.0188656E+01  0.0000000E+00
 3.0210764E+01  0.0000000E+00
 3.0232872E+01  0.0000000E+00
 3.0254980E+01  0.0000000E+00
 3.0277088E+01  0.0000000E+00
 3.0299196E+01  0.0000000E+00
 3.0321304E+01  0.0000000E+00
 3.0343412E+01  0.0000000E+00
 3.0365520E+01  0.0000000E+00
 3.0387629E+01  0.0000000E+00
 3.0409737E+01  0.0000000E+00
 3.0431845E+01  0.0000000E+00
 3.0453953E+01  0.0000000E+00
 3.0476061E+01  0.0000000E+00
 3.0498169E+01  0.0000000E+00
 3.0520277E+01  0.0000000E+00
 3.0542385E+01  0.0000000E+00
 3.0564493E+01  0.0000000E+00
 3.0586601E+01  0.0000000E+00
 3.0608709E+01  0.0000000E+00
 3.0630817E+01  0.0000000E+00
 3.0652925E+01  0.0000000E+00
 3.0675034E+01  0.0000000E+00
 3.0697142E+01  0.0000000E+00
 3.0719250E+01  0.0000000E+00
 3.0741358E+01  0.0000000E+00
 3.0763466E+01  0.0000000E+00
 3.0785574E+01  0.0000000E+00
 3.0807684E+01  0.0000000E+00
 3.0829792E+01  0.0000000E+00
 3.0851900E+01  0.0000000E+00
 3.0874008E+01  0.0000000E+00
 3.0896116E+01  0.0000000E+00
 3.0918224E+01  0.0000000E+00
 3.0940332E+01  0.0000000E+00
 3.0962440E+01  0.0000000E+00
 3.0984549E+01  0.0000000E+00
 3.1006657E+01  0.0000000E+00
 3.1028765E+01  0.0000000E+00
 3.1050873E+01  0.0000000E+00
 3.1072981E+01  0.0000000E+00
 3.1095089E+01  0.0000000E+00
 3.1117197E+01  0.0000000E+00
 3.1139305E+01  0.0000000E+00
 3.1161413E+01  0.0000000E+00
 3.1183521E+01  0.0000000E+00
 3.1205629E+01  0.0000000E+00
 3.1227737E+01  0.0000000E+00
 3.1249846E+01  0.0000000E+00
 3.1271954E+01  0.0000000E+00
 3.1294062E+01  0.0000000E+00
 3.1316170E+01  0.0000000E+00
 3.1338278E+01  0.0000000E+00
 3.1360386E+01  0.0000000E+00
 3.1382494E+01  0.0000000E+00
 3.1404602E+01  0.0000000E+00
 3.1426710E+01  0.0000000E+00
 3.1448818E+01  0.0000000E+00
 3.1470926E+01  0.0000000E+00
 3.1493034E+01  0.0000000E+00
 3.1515142E+01  0.0000000E+00
 3.1537251E+01  0.0000000E+00
 3.1559361E+01  0.0000000E+00
 3.1581469E+01  0.0000000E+00
 3.1603577E+01  0.0000000E+00
 3.1625685E+01  0.0000000E+00
 3.1647793E+01  0.0000000E+00
 3.1669901E+01  0.0000000E+00
 3.1692009E+01  0.0000000E+00
 3.1714117E+01  0.0000000E+00
 3.1736225E+01  0.0000000E+00
 3.1758333E+01  0.0000000E+00
 3.1780441E+01  0.0000000E+00
 3.1802549E+01  0.0000000E+00
 3.1824657E+01  0.0000000E+00
 3.1846766E+01  0.0000000E+00
 3.1868874E+01  0.0000000E+00
 3.1890982E+01  0.0000000E+00
 3.1913090E+01  0.0000000E+00
 3.1935198E+01  0.0000000E+00
 3.1957306E+01  0.0000000E+00
 3.1979414E+01  0.0000000E+00
 3.2001522E+01  0.0000000E+00
 3.2023632E+01  0.0000000E+00
 3.2045738E+01  0.0000000E+00
 3.2067848E+01  0.0000000E+00
 3.2089954E+01  0.0000000E+00
 3.2112064E+01  0.0000000E+00
 3.2134171E+01  0.0000000E+00
 3.2156281E+01  0.0000000E+00
 3.2178387E+01  0.0000000E+00
 3.2200497E+01  0.0000000E+00
 3.2222603E+01  0.0000000E+00
 3.2244713E+01  0.0000000E+00
 3.2266819E+01  0.0000000E+00
 3.2288929E+01  0.0000000E+00
 3.2311035E+01  0.0000000E+00
 3.2333145E+01  0.0000000E+00
 3.2355251E+01  0.0000000E+00
 3.2377361E+01  0.0000000E+00
 3.2399467E+01  0.0000000E+00
 3.2421577E+01  0.0000000E+00
 3.2443684E+01  0.0000000E+00
 3.2465794E+01  0.0000000E+00
 3.2487900E+01  0.0000000E+00
 3.2510010E+01  0.0000000E+00
 3.2532116E+01  0.0000000E+00
 3.2554226E+01  0.0000000E+00
 3.2576332E+01  0.0000000E+00
 3.2598442E+01  0.0000000E+00
 3.2620548E+01  0.0000000E+00
 3.2642658E+01  0.0000000E+00
 3.2664764E+01  0.0000000E+00
 3.2686874E+01  0.0000000E+00
 3.2708981E+01  0.0000000E+00
 3.2731091E+01  0.0000000E+00
