D:\DATA\UserData\CuiTian20190403\CWH\BA\BA_1.tif: 2-theta Scan
2-Theta Angle (Degrees)
Intensity
       1138
 1.1662041E-02  4.4373497E+01
 3.4986123E-02  4.5575645E+01
 5.8310203E-02  4.2677700E+01
 8.1634283E-02  3.9432632E+01
 1.0495837E-01  3.9438011E+01
 1.2828244E-01  3.9699902E+01
 1.5160653E-01  3.8109993E+01
 1.7493062E-01  3.6297306E+01
 1.9825469E-01  3.6339886E+01
 2.2157878E-01  3.6807808E+01
 2.4490286E-01  3.6007736E+01
 2.6822695E-01  3.6399311E+01
 2.9155102E-01  3.7540035E+01
 3.1487510E-01  3.6522255E+01
 3.3819920E-01  3.7346527E+01
 3.6152327E-01  3.7654789E+01
 3.8484734E-01  3.7716835E+01
 4.0817142E-01  3.7003349E+01
 4.3149552E-01  3.6287357E+01
 4.5481959E-01  3.5819439E+01
 4.7814366E-01  3.6226212E+01
 5.0146776E-01  3.7252083E+01
 5.2479184E-01  3.8866795E+01
 5.4811591E-01  3.8879604E+01
 5.7143998E-01  3.7645485E+01
 5.9476405E-01  3.7273212E+01
 6.1808819E-01  3.7558567E+01
 6.4141226E-01  3.7728687E+01
 6.6473633E-01  3.7856857E+01
 6.8806040E-01  3.7802345E+01
 7.1138448E-01  3.7770500E+01
 7.3470855E-01  3.7569050E+01
 7.5803268E-01  3.7281105E+01
 7.8135675E-01  3.7715679E+01
 8.0468082E-01  3.8049282E+01
 8.2800490E-01  3.7769871E+01
 8.5132897E-01  3.8013985E+01
 8.7465304E-01  3.8066719E+01
 8.9797711E-01  3.7478985E+01
 9.2130125E-01  3.7691940E+01
 9.4462532E-01  3.7753727E+01
 9.6794939E-01  3.8061874E+01
 9.9127346E-01  3.7714149E+01
 1.0145975E+00  3.7989212E+01
 1.0379217E+00  3.8500336E+01
 1.0612457E+00  3.8631607E+01
 1.0845698E+00  3.8431671E+01
 1.1078938E+00  3.8229107E+01
 1.1312180E+00  3.8260990E+01
 1.1545421E+00  3.8550144E+01
 1.1778661E+00  3.8607002E+01
 1.2011902E+00  3.8402737E+01
 1.2245142E+00  3.8566364E+01
 1.2478384E+00  3.8410385E+01
 1.2711624E+00  3.8148640E+01
 1.2944865E+00  3.8187134E+01
 1.3178107E+00  3.8225315E+01
 1.3411347E+00  3.8436325E+01
 1.3644588E+00  3.8386093E+01
 1.3877828E+00  3.8607700E+01
 1.4111069E+00  3.8747433E+01
 1.4344311E+00  3.9279095E+01
 1.4577551E+00  3.9741154E+01
 1.4810792E+00  3.9901436E+01
 1.5044032E+00  3.9962116E+01
 1.5277274E+00  4.0233749E+01
 1.5510514E+00  4.0311581E+01
 1.5743755E+00  4.0137169E+01
 1.5976996E+00  4.0090401E+01
 1.6210237E+00  4.0348324E+01
 1.6443478E+00  4.0996548E+01
 1.6676718E+00  4.0968075E+01
 1.6909959E+00  4.1061657E+01
 1.7143199E+00  4.1568657E+01
 1.7376441E+00  4.1903332E+01
 1.7609682E+00  4.2210815E+01
 1.7842922E+00  4.2901283E+01
 1.8076164E+00  4.3460316E+01
 1.8309404E+00  4.3814701E+01
 1.8542645E+00  4.4918369E+01
 1.8775885E+00  4.7228191E+01
 1.9009126E+00  5.2827446E+01
 1.9242368E+00  6.6311363E+01
 1.9475608E+00  8.7827721E+01
 1.9708849E+00  1.1292733E+02
 1.9942089E+00  1.3908063E+02
 2.0175331E+00  1.6258357E+02
 2.0408571E+00  1.8579376E+02
 2.0641813E+00  2.1055937E+02
 2.0875053E+00  2.3663940E+02
 2.1108294E+00  2.6270935E+02
 2.1341534E+00  2.9187717E+02
 2.1574776E+00  3.2243146E+02
 2.1808016E+00  3.5576620E+02
 2.2041256E+00  3.9526361E+02
 2.2274499E+00  4.3079071E+02
 2.2507739E+00  4.5809668E+02
 2.2740979E+00  4.8193814E+02
 2.2974219E+00  5.0405820E+02
 2.3207462E+00  5.2534766E+02
 2.3440702E+00  5.4616528E+02
 2.3673942E+00  5.6682306E+02
 2.3907185E+00  5.8742999E+02
 2.4140425E+00  6.0833923E+02
 2.4373665E+00  6.2755389E+02
 2.4606905E+00  6.4663751E+02
 2.4840147E+00  6.6496509E+02
 2.5073388E+00  6.8299054E+02
 2.5306628E+00  7.0049884E+02
 2.5539870E+00  7.1851599E+02
 2.5773110E+00  7.3410724E+02
 2.6006351E+00  7.4913849E+02
 2.6239591E+00  7.6443805E+02
 2.6472833E+00  7.8235645E+02
 2.6706073E+00  7.9811249E+02
 2.6939313E+00  8.1023468E+02
 2.7172556E+00  8.2232874E+02
 2.7405796E+00  8.3947968E+02
 2.7639036E+00  8.5448267E+02
 2.7872279E+00  8.6507208E+02
 2.8105519E+00  8.7736749E+02
 2.8338759E+00  8.9127795E+02
 2.8571999E+00  9.0381628E+02
 2.8805242E+00  9.1537427E+02
 2.9038482E+00  9.2629175E+02
 2.9271722E+00  9.3864502E+02
 2.9504964E+00  9.5272076E+02
 2.9738204E+00  9.6456036E+02
 2.9971445E+00  9.7373340E+02
 3.0204685E+00  9.8344391E+02
 3.0437927E+00  9.9355731E+02
 3.0671167E+00  1.0027985E+03
 3.0904408E+00  1.0146716E+03
 3.1137650E+00  1.0256279E+03
 3.1370890E+00  1.0340503E+03
 3.1604130E+00  1.0410486E+03
 3.1837370E+00  1.0505081E+03
 3.2070613E+00  1.0584492E+03
 3.2303853E+00  1.0643678E+03
 3.2537093E+00  1.0719812E+03
 3.2770336E+00  1.0812451E+03
 3.3003576E+00  1.0884755E+03
 3.3236816E+00  1.0955219E+03
 3.3470056E+00  1.1014336E+03
 3.3703299E+00  1.1088954E+03
 3.3936539E+00  1.1174197E+03
 3.4169779E+00  1.1262307E+03
 3.4403021E+00  1.1313734E+03
 3.4636261E+00  1.1361464E+03
 3.4869502E+00  1.1439845E+03
 3.5102742E+00  1.1521144E+03
 3.5335984E+00  1.1579583E+03
 3.5569224E+00  1.1650083E+03
 3.5802464E+00  1.1707197E+03
 3.6035707E+00  1.1775752E+03
 3.6268947E+00  1.1831450E+03
 3.6502187E+00  1.1879301E+03
 3.6735427E+00  1.1940417E+03
 3.6968670E+00  1.1988433E+03
 3.7201910E+00  1.2031526E+03
 3.7435150E+00  1.2060728E+03
 3.7668393E+00  1.2086442E+03
 3.7901633E+00  1.2110065E+03
 3.8134873E+00  1.2150079E+03
 3.8368115E+00  1.2201637E+03
 3.8601356E+00  1.2259263E+03
 3.8834596E+00  1.2287045E+03
 3.9067836E+00  1.2329080E+03
 3.9301078E+00  1.2391305E+03
 3.9534318E+00  1.2431403E+03
 3.9767559E+00  1.2452401E+03
 4.0000801E+00  1.2469481E+03
 4.0234041E+00  1.2498251E+03
 4.0467281E+00  1.2554194E+03
 4.0700521E+00  1.2602601E+03
 4.0933762E+00  1.2646510E+03
 4.1167002E+00  1.2680770E+03
 4.1400247E+00  1.2689911E+03
 4.1633487E+00  1.2702792E+03
 4.1866727E+00  1.2713414E+03
 4.2099967E+00  1.2740757E+03
 4.2333207E+00  1.2775619E+03
 4.2566447E+00  1.2804974E+03
 4.2799687E+00  1.2827369E+03
 4.3032932E+00  1.2855995E+03
 4.3266172E+00  1.2870336E+03
 4.3499413E+00  1.2899895E+03
 4.3732653E+00  1.2937715E+03
 4.3965893E+00  1.2949011E+03
 4.4199133E+00  1.2952261E+03
 4.4432378E+00  1.2969590E+03
 4.4665618E+00  1.3001472E+03
 4.4898858E+00  1.3008148E+03
 4.5132098E+00  1.3003098E+03
 4.5365338E+00  1.2994325E+03
 4.5598578E+00  1.3020889E+03
 4.5831819E+00  1.3057882E+03
 4.6065063E+00  1.3076519E+03
 4.6298304E+00  1.3072053E+03
 4.6531544E+00  1.3071635E+03
 4.6764784E+00  1.3077802E+03
 4.6998024E+00  1.3077523E+03
 4.7231264E+00  1.3095851E+03
 4.7464504E+00  1.3110806E+03
 4.7697749E+00  1.3115935E+03
 4.7930989E+00  1.3129116E+03
 4.8164229E+00  1.3134191E+03
 4.8397470E+00  1.3143721E+03
 4.8630710E+00  1.3143435E+03
 4.8863950E+00  1.3148190E+03
 4.9097190E+00  1.3157738E+03
 4.9330435E+00  1.3162039E+03
 4.9563675E+00  1.3155663E+03
 4.9796915E+00  1.3160552E+03
 5.0030155E+00  1.3183304E+03
 5.0263395E+00  1.3189534E+03
 5.0496635E+00  1.3185232E+03
 5.0729876E+00  1.3181757E+03
 5.0963120E+00  1.3177024E+03
 5.1196361E+00  1.3178701E+03
 5.1429601E+00  1.3174318E+03
 5.1662841E+00  1.3176361E+03
 5.1896081E+00  1.3192007E+03
 5.2129321E+00  1.3195806E+03
 5.2362561E+00  1.3190424E+03
 5.2595806E+00  1.3188456E+03
 5.2829046E+00  1.3176122E+03
 5.3062286E+00  1.3172561E+03
 5.3295527E+00  1.3169615E+03
 5.3528767E+00  1.3174469E+03
 5.3762007E+00  1.3181467E+03
 5.3995247E+00  1.3172810E+03
 5.4228492E+00  1.3177329E+03
 5.4461732E+00  1.3191658E+03
 5.4694972E+00  1.3194066E+03
 5.4928212E+00  1.3207373E+03
 5.5161452E+00  1.3202849E+03
 5.5394692E+00  1.3186084E+03
 5.5627933E+00  1.3181501E+03
 5.5861177E+00  1.3177871E+03
 5.6094418E+00  1.3165563E+03
 5.6327658E+00  1.3153036E+03
 5.6560898E+00  1.3157501E+03
 5.6794138E+00  1.3158647E+03
 5.7027378E+00  1.3158406E+03
 5.7260618E+00  1.3163027E+03
 5.7493863E+00  1.3167219E+03
 5.7727103E+00  1.3156078E+03
 5.7960343E+00  1.3146205E+03
 5.8193583E+00  1.3144240E+03
 5.8426824E+00  1.3125173E+03
 5.8660064E+00  1.3118302E+03
 5.8893304E+00  1.3118953E+03
 5.9126549E+00  1.3112048E+03
 5.9359789E+00  1.3107212E+03
 5.9593029E+00  1.3086057E+03
 5.9826269E+00  1.3089772E+03
 6.0059509E+00  1.3097188E+03
 6.0292749E+00  1.3097289E+03
 6.0525990E+00  1.3090120E+03
 6.0759234E+00  1.3083601E+03
 6.0992475E+00  1.3081566E+03
 6.1225715E+00  1.3082260E+03
 6.1458955E+00  1.3074011E+03
 6.1692195E+00  1.3066006E+03
 6.1925435E+00  1.3059951E+03
 6.2158675E+00  1.3067604E+03
 6.2391920E+00  1.3074910E+03
 6.2625160E+00  1.3068682E+03
 6.2858400E+00  1.3047892E+03
 6.3091640E+00  1.3036034E+03
 6.3324881E+00  1.3038595E+03
 6.3558121E+00  1.3031083E+03
 6.3791361E+00  1.3023695E+03
 6.4024606E+00  1.3016938E+03
 6.4257846E+00  1.3029032E+03
 6.4491086E+00  1.3029934E+03
 6.4724326E+00  1.3034113E+03
 6.4957566E+00  1.3040199E+03
 6.5190806E+00  1.3048812E+03
 6.5424051E+00  1.3029447E+03
 6.5657291E+00  1.3024020E+03
 6.5890532E+00  1.3022511E+03
 6.6123772E+00  1.2998156E+03
 6.6357012E+00  1.2992260E+03
 6.6590252E+00  1.2977277E+03
 6.6823492E+00  1.2956212E+03
 6.7056737E+00  1.2958019E+03
 6.7289977E+00  1.2973511E+03
 6.7523217E+00  1.2983932E+03
 6.7756457E+00  1.2964011E+03
 6.7989697E+00  1.2956543E+03
 6.8222938E+00  1.2952542E+03
 6.8456178E+00  1.2939320E+03
 6.8689423E+00  1.2934381E+03
 6.8922663E+00  1.2935541E+03
 6.9155903E+00  1.2929066E+03
 6.9389143E+00  1.2898188E+03
 6.9622383E+00  1.2883331E+03
 6.9855623E+00  1.2880439E+03
 7.0088863E+00  1.2891986E+03
 7.0322108E+00  1.2901982E+03
 7.0555348E+00  1.2884551E+03
 7.0788589E+00  1.2879282E+03
 7.1021829E+00  1.2885883E+03
 7.1255069E+00  1.2873695E+03
 7.1488309E+00  1.2859148E+03
 7.1721549E+00  1.2863663E+03
 7.1954794E+00  1.2861769E+03
 7.2188034E+00  1.2848824E+03
 7.2421274E+00  1.2837183E+03
 7.2654514E+00  1.2845345E+03
 7.2887754E+00  1.2842760E+03
 7.3120995E+00  1.2843987E+03
 7.3354235E+00  1.2833770E+03
 7.3587480E+00  1.2807498E+03
 7.3820720E+00  1.2796315E+03
 7.4053960E+00  1.2791505E+03
 7.4287200E+00  1.2774502E+03
 7.4520440E+00  1.2777277E+03
 7.4753680E+00  1.2771819E+03
 7.4986920E+00  1.2755902E+03
 7.5220165E+00  1.2753322E+03
 7.5453405E+00  1.2779816E+03
 7.5686646E+00  1.2802131E+03
 7.5919886E+00  1.2787666E+03
 7.6153126E+00  1.2768845E+03
 7.6386366E+00  1.2770806E+03
 7.6619606E+00  1.2765564E+03
 7.6852851E+00  1.2752037E+03
 7.7086091E+00  1.2751420E+03
 7.7319331E+00  1.2744005E+03
 7.7552571E+00  1.2739786E+03
 7.7785811E+00  1.2735449E+03
 7.8019052E+00  1.2736544E+03
 7.8252292E+00  1.2735531E+03
 7.8485537E+00  1.2747283E+03
 7.8718777E+00  1.2744492E+03
 7.8952017E+00  1.2729976E+03
 7.9185257E+00  1.2720118E+03
 7.9418497E+00  1.2704410E+03
 7.9651737E+00  1.2705051E+03
 7.9884977E+00  1.2720920E+03
 8.0118217E+00  1.2705018E+03
 8.0351458E+00  1.2702845E+03
 8.0584698E+00  1.2698232E+03
 8.0817947E+00  1.2684052E+03
 8.1051188E+00  1.2680100E+03
 8.1284428E+00  1.2686479E+03
 8.1517668E+00  1.2683777E+03
 8.1750908E+00  1.2684102E+03
 8.1984148E+00  1.2684138E+03
 8.2217388E+00  1.2679652E+03
 8.2450628E+00  1.2663429E+03
 8.2683868E+00  1.2660398E+03
 8.2917109E+00  1.2660406E+03
 8.3150349E+00  1.2653531E+03
 8.3383589E+00  1.2651400E+03
 8.3616829E+00  1.2654395E+03
 8.3850069E+00  1.2658882E+03
 8.4083319E+00  1.2650150E+03
 8.4316559E+00  1.2658335E+03
 8.4549799E+00  1.2658152E+03
 8.4783039E+00  1.2651705E+03
 8.5016279E+00  1.2657799E+03
 8.5249519E+00  1.2657129E+03
 8.5482759E+00  1.2643663E+03
 8.5716000E+00  1.2644607E+03
 8.5949240E+00  1.2654987E+03
 8.6182480E+00  1.2664886E+03
 8.6415720E+00  1.2673900E+03
 8.6648960E+00  1.2677513E+03
 8.6882200E+00  1.2694810E+03
 8.7115440E+00  1.2709374E+03
 8.7348690E+00  1.2718070E+03
 8.7581930E+00  1.2741036E+03
 8.7815170E+00  1.2806324E+03
 8.8048410E+00  1.2893629E+03
 8.8281651E+00  1.2990963E+03
 8.8514891E+00  1.3084503E+03
 8.8748131E+00  1.3089707E+03
 8.8981371E+00  1.3022866E+03
 8.9214611E+00  1.2946614E+03
 8.9447851E+00  1.2867916E+03
 8.9681091E+00  1.2804808E+03
 8.9914331E+00  1.2768312E+03
 9.0147572E+00  1.2754951E+03
 9.0380812E+00  1.2729795E+03
 9.0614061E+00  1.2825828E+03
 9.0847301E+00  1.2934331E+03
 9.1080542E+00  1.2942100E+03
 9.1313782E+00  1.2946697E+03
 9.1547022E+00  1.2996011E+03
 9.1780262E+00  1.3107593E+03
 9.2013502E+00  1.3307886E+03
 9.2246742E+00  1.3528651E+03
 9.2479982E+00  1.3575736E+03
 9.2713223E+00  1.3396824E+03
 9.2946463E+00  1.3175336E+03
 9.3179703E+00  1.3079608E+03
 9.3412943E+00  1.3030139E+03
 9.3646183E+00  1.3008774E+03
 9.3879433E+00  1.2998877E+03
 9.4112673E+00  1.2982963E+03
 9.4345913E+00  1.2982618E+03
 9.4579153E+00  1.2982146E+03
 9.4812393E+00  1.2997355E+03
 9.5045633E+00  1.3028113E+03
 9.5278873E+00  1.3054993E+03
 9.5512114E+00  1.3364899E+03
 9.5745354E+00  1.3954377E+03
 9.5978594E+00  1.4403734E+03
 9.6211834E+00  1.4403331E+03
 9.6445074E+00  1.4185330E+03
 9.6678314E+00  1.3377374E+03
 9.6911554E+00  1.3033457E+03
 9.7144804E+00  1.3014998E+03
 9.7378044E+00  1.3013834E+03
 9.7611284E+00  1.3006056E+03
 9.7844524E+00  1.3011005E+03
 9.8077765E+00  1.3027347E+03
 9.8311005E+00  1.3054978E+03
 9.8544245E+00  1.3066967E+03
 9.8777485E+00  1.3055446E+03
 9.9010725E+00  1.3065444E+03
 9.9243965E+00  1.3087520E+03
 9.9477205E+00  1.3097053E+03
 9.9710445E+00  1.3114774E+03
 9.9943686E+00  1.3139647E+03
 1.0017694E+01  1.3173289E+03
 1.0041018E+01  1.3227787E+03
 1.0064342E+01  1.3299371E+03
 1.0087666E+01  1.3372113E+03
 1.0110990E+01  1.3424469E+03
 1.0134314E+01  1.3445377E+03
 1.0157638E+01  1.3450614E+03
 1.0180962E+01  1.3462570E+03
 1.0204286E+01  1.3505936E+03
 1.0227610E+01  1.3519457E+03
 1.0250934E+01  1.3476392E+03
 1.0274258E+01  1.3410792E+03
 1.0297582E+01  1.3359078E+03
 1.0320906E+01  1.3318898E+03
 1.0344231E+01  1.3286166E+03
 1.0367555E+01  1.3245448E+03
 1.0390879E+01  1.3213845E+03
 1.0414203E+01  1.3226620E+03
 1.0437527E+01  1.3237675E+03
 1.0460851E+01  1.3240234E+03
 1.0484175E+01  1.3243978E+03
 1.0507499E+01  1.3245004E+03
 1.0530823E+01  1.3240565E+03
 1.0554147E+01  1.3250348E+03
 1.0577471E+01  1.3271907E+03
 1.0600795E+01  1.3291243E+03
 1.0624119E+01  1.3298459E+03
 1.0647443E+01  1.3349319E+03
 1.0670768E+01  1.3541172E+03
 1.0694092E+01  1.3768854E+03
 1.0717416E+01  1.3693646E+03
 1.0740740E+01  1.3458796E+03
 1.0764064E+01  1.3398954E+03
 1.0787388E+01  1.3448455E+03
 1.0810712E+01  1.3518622E+03
 1.0834036E+01  1.3559955E+03
 1.0857360E+01  1.3531445E+03
 1.0880684E+01  1.3470354E+03
 1.0904008E+01  1.3420104E+03
 1.0927332E+01  1.3431837E+03
 1.0950656E+01  1.3510272E+03
 1.0973980E+01  1.3577234E+03
 1.0997305E+01  1.3639355E+03
 1.1020629E+01  1.3692101E+03
 1.1043953E+01  1.3757131E+03
 1.1067277E+01  1.3823701E+03
 1.1090601E+01  1.3893882E+03
 1.1113925E+01  1.4007894E+03
 1.1137249E+01  1.4158982E+03
 1.1160573E+01  1.4429955E+03
 1.1183897E+01  1.4922571E+03
 1.1207221E+01  1.5872360E+03
 1.1230545E+01  1.8050757E+03
 1.1253869E+01  2.2177866E+03
 1.1277193E+01  2.7165632E+03
 1.1300517E+01  2.9198826E+03
 1.1323842E+01  2.6509463E+03
 1.1347166E+01  2.1723635E+03
 1.1370490E+01  1.9126926E+03
 1.1393814E+01  1.6581710E+03
 1.1417138E+01  1.5377998E+03
 1.1440462E+01  1.4970200E+03
 1.1463786E+01  1.4747283E+03
 1.1487110E+01  1.4576097E+03
 1.1510434E+01  1.4476563E+03
 1.1533758E+01  1.4403644E+03
 1.1557082E+01  1.4340453E+03
 1.1580406E+01  1.4310920E+03
 1.1603730E+01  1.4312039E+03
 1.1627054E+01  1.4313231E+03
 1.1650379E+01  1.4315874E+03
 1.1673703E+01  1.4312091E+03
 1.1697027E+01  1.4326793E+03
 1.1720351E+01  1.4381948E+03
 1.1743675E+01  1.4435125E+03
 1.1766999E+01  1.4498752E+03
 1.1790323E+01  1.4616931E+03
 1.1813647E+01  1.4777128E+03
 1.1836971E+01  1.4988928E+03
 1.1860295E+01  1.5303513E+03
 1.1883619E+01  1.5610996E+03
 1.1906943E+01  1.5771779E+03
 1.1930267E+01  1.5811919E+03
 1.1953592E+01  1.5787946E+03
 1.1976916E+01  1.5667609E+03
 1.2000240E+01  1.5488826E+03
 1.2023564E+01  1.5292874E+03
 1.2046888E+01  1.5098890E+03
 1.2070212E+01  1.4885729E+03
 1.2093536E+01  1.4754873E+03
 1.2116860E+01  1.4708141E+03
 1.2140184E+01  1.4653662E+03
 1.2163508E+01  1.4642775E+03
 1.2186832E+01  1.4663044E+03
 1.2210156E+01  1.4675778E+03
 1.2233480E+01  1.4678232E+03
 1.2256804E+01  1.4687863E+03
 1.2280129E+01  1.4686456E+03
 1.2303453E+01  1.4699705E+03
 1.2326777E+01  1.4729386E+03
 1.2350101E+01  1.4763145E+03
 1.2373425E+01  1.4793060E+03
 1.2396749E+01  1.4817332E+03
 1.2420074E+01  1.4851306E+03
 1.2443398E+01  1.4911744E+03
 1.2466722E+01  1.5003219E+03
 1.2490046E+01  1.5134889E+03
 1.2513370E+01  1.5299562E+03
 1.2536694E+01  1.5513086E+03
 1.2560018E+01  1.5705752E+03
 1.2583342E+01  1.5804939E+03
 1.2606667E+01  1.5840315E+03
 1.2629991E+01  1.5813794E+03
 1.2653315E+01  1.5708622E+03
 1.2676639E+01  1.5586075E+03
 1.2699963E+01  1.5449789E+03
 1.2723287E+01  1.5370029E+03
 1.2746611E+01  1.5377928E+03
 1.2769935E+01  1.5384502E+03
 1.2793259E+01  1.5412439E+03
 1.2816583E+01  1.5448597E+03
 1.2839907E+01  1.5497135E+03
 1.2863231E+01  1.5595565E+03
 1.2886555E+01  1.5729277E+03
 1.2909879E+01  1.5973645E+03
 1.2933204E+01  1.6491305E+03
 1.2956528E+01  1.7365913E+03
 1.2979852E+01  1.8500593E+03
 1.3003176E+01  1.9120717E+03
 1.3026500E+01  2.0546689E+03
 1.3049824E+01  2.2323379E+03
 1.3073148E+01  2.4205813E+03
 1.3096472E+01  2.4685820E+03
 1.3119796E+01  2.3203953E+03
 1.3143120E+01  2.0295787E+03
 1.3166444E+01  1.7873590E+03
 1.3189768E+01  1.6409572E+03
 1.3213092E+01  1.5967762E+03
 1.3236416E+01  1.5807144E+03
 1.3259741E+01  1.5699515E+03
 1.3283065E+01  1.5647175E+03
 1.3306389E+01  1.5626688E+03
 1.3329713E+01  1.5615460E+03
 1.3353037E+01  1.5613906E+03
 1.3376361E+01  1.5593889E+03
 1.3399685E+01  1.5605237E+03
 1.3423009E+01  1.5659801E+03
 1.3446333E+01  1.5689879E+03
 1.3469657E+01  1.5728219E+03
 1.3492981E+01  1.5758995E+03
 1.3516305E+01  1.5787999E+03
 1.3539629E+01  1.5824177E+03
 1.3562953E+01  1.5822889E+03
 1.3586278E+01  1.5817996E+03
 1.3609602E+01  1.5804230E+03
 1.3632926E+01  1.5789976E+03
 1.3656250E+01  1.5778269E+03
 1.3679574E+01  1.5783102E+03
 1.3702898E+01  1.5805687E+03
 1.3726222E+01  1.5808899E+03
 1.3749546E+01  1.5809586E+03
 1.3772870E+01  1.5827688E+03
 1.3796194E+01  1.5854990E+03
 1.3819518E+01  1.5876842E+03
 1.3842842E+01  1.5887117E+03
 1.3866166E+01  1.5890968E+03
 1.3889490E+01  1.5921976E+03
 1.3912815E+01  1.5945583E+03
 1.3936139E+01  1.5957587E+03
 1.3959463E+01  1.5968102E+03
 1.3982787E+01  1.5969905E+03
 1.4006111E+01  1.6000516E+03
 1.4029435E+01  1.6044094E+03
 1.4052759E+01  1.6075518E+03
 1.4076083E+01  1.6111749E+03
 1.4099407E+01  1.6140787E+03
 1.4122731E+01  1.6175706E+03
 1.4146055E+01  1.6232727E+03
 1.4169379E+01  1.6262177E+03
 1.4192703E+01  1.6292922E+03
 1.4216028E+01  1.6322452E+03
 1.4239352E+01  1.6326807E+03
 1.4262676E+01  1.6335302E+03
 1.4286000E+01  1.6362660E+03
 1.4309324E+01  1.6374946E+03
 1.4332648E+01  1.6359954E+03
 1.4355972E+01  1.6333817E+03
 1.4379296E+01  1.6350034E+03
 1.4402620E+01  1.6402936E+03
 1.4425944E+01  1.6421887E+03
 1.4449268E+01  1.6437029E+03
 1.4472592E+01  1.6504202E+03
 1.4495916E+01  1.6658245E+03
 1.4519240E+01  1.6868928E+03
 1.4542565E+01  1.6977330E+03
 1.4565889E+01  1.6986959E+03
 1.4589213E+01  1.7042230E+03
 1.4612537E+01  1.7026965E+03
 1.4635861E+01  1.6916818E+03
 1.4659185E+01  1.6818386E+03
 1.4682509E+01  1.6746427E+03
 1.4705833E+01  1.6711396E+03
 1.4729157E+01  1.6703389E+03
 1.4752481E+01  1.6704766E+03
 1.4775805E+01  1.6721968E+03
 1.4799129E+01  1.6739246E+03
 1.4822453E+01  1.6769659E+03
 1.4845778E+01  1.6788961E+03
 1.4869102E+01  1.6798180E+03
 1.4892426E+01  1.6805956E+03
 1.4915751E+01  1.6816683E+03
 1.4939075E+01  1.6850366E+03
 1.4962399E+01  1.6859307E+03
 1.4985723E+01  1.6887443E+03
 1.5009047E+01  1.6909906E+03
 1.5032371E+01  1.6936931E+03
 1.5055695E+01  1.6955818E+03
 1.5079019E+01  1.6955007E+03
 1.5102343E+01  1.6983840E+03
 1.5125667E+01  1.6997393E+03
 1.5148991E+01  1.7015422E+03
 1.5172315E+01  1.7056479E+03
 1.5195640E+01  1.7068347E+03
 1.5218964E+01  1.7087063E+03
 1.5242288E+01  1.7118639E+03
 1.5265612E+01  1.7146534E+03
 1.5288936E+01  1.7161937E+03
 1.5312260E+01  1.7161266E+03
 1.5335584E+01  1.7198354E+03
 1.5358908E+01  1.7227159E+03
 1.5382232E+01  1.7249795E+03
 1.5405556E+01  1.7298401E+03
 1.5428880E+01  1.7301576E+03
 1.5452204E+01  1.7340319E+03
 1.5475528E+01  1.7378872E+03
 1.5498852E+01  1.7395948E+03
 1.5522177E+01  1.7410349E+03
 1.5545501E+01  1.7415798E+03
 1.5568825E+01  1.7446461E+03
 1.5592149E+01  1.7473583E+03
 1.5615473E+01  1.7494417E+03
 1.5638797E+01  1.7531108E+03
 1.5662121E+01  1.7565114E+03
 1.5685445E+01  1.7589954E+03
 1.5708769E+01  1.7623247E+03
 1.5732093E+01  1.7660566E+03
 1.5755417E+01  1.7693574E+03
 1.5778741E+01  1.7729905E+03
 1.5802065E+01  1.7740093E+03
 1.5825389E+01  1.7781952E+03
 1.5848714E+01  1.7841793E+03
 1.5872038E+01  1.7884641E+03
 1.5895362E+01  1.7927473E+03
 1.5918686E+01  1.7953745E+03
 1.5942010E+01  1.7979523E+03
 1.5965334E+01  1.8013368E+03
 1.5988658E+01  1.8060630E+03
 1.6011982E+01  1.8099596E+03
 1.6035307E+01  1.8144513E+03
 1.6058630E+01  1.8184958E+03
 1.6081955E+01  1.8271953E+03
 1.6105278E+01  1.8340120E+03
 1.6128603E+01  1.8398251E+03
 1.6151926E+01  1.8448665E+03
 1.6175251E+01  1.8493290E+03
 1.6198574E+01  1.8499674E+03
 1.6221899E+01  1.8461244E+03
 1.6245222E+01  1.8422815E+03
 1.6268547E+01  1.8388481E+03
 1.6291870E+01  1.8331932E+03
 1.6315195E+01  1.8285240E+03
 1.6338520E+01  1.8274098E+03
 1.6361843E+01  1.8261733E+03
 1.6385168E+01  1.8261349E+03
 1.6408491E+01  1.8279597E+03
 1.6431816E+01  1.8292554E+03
 1.6455139E+01  1.8290529E+03
 1.6478464E+01  1.8304670E+03
 1.6501787E+01  1.8348342E+03
 1.6525112E+01  1.8363831E+03
 1.6548435E+01  1.8374847E+03
 1.6571760E+01  1.8396990E+03
 1.6595083E+01  1.8418783E+03
 1.6618408E+01  1.8442096E+03
 1.6641733E+01  1.8465714E+03
 1.6665056E+01  1.8471304E+03
 1.6688381E+01  1.8493956E+03
 1.6711704E+01  1.8509091E+03
 1.6735029E+01  1.8531256E+03
 1.6758352E+01  1.8555985E+03
 1.6781677E+01  1.8580723E+03
 1.6805000E+01  1.8614238E+03
 1.6828325E+01  1.8648657E+03
 1.6851648E+01  1.8683903E+03
 1.6874973E+01  1.8699490E+03
 1.6898296E+01  1.8730656E+03
 1.6921621E+01  1.8777131E+03
 1.6944944E+01  1.8800620E+03
 1.6968269E+01  1.8823778E+03
 1.6991594E+01  1.8857896E+03
 1.7014917E+01  1.8876686E+03
 1.7038242E+01  1.8903138E+03
 1.7061565E+01  1.8933635E+03
 1.7084890E+01  1.8963029E+03
 1.7108213E+01  1.8974500E+03
 1.7131538E+01  1.8988241E+03
 1.7154861E+01  1.8996211E+03
 1.7178186E+01  1.9022935E+03
 1.7201509E+01  1.9065898E+03
 1.7224834E+01  1.9096947E+03
 1.7248158E+01  1.9116989E+03
 1.7271482E+01  1.9157524E+03
 1.7294807E+01  1.9191001E+03
 1.7318130E+01  1.9206959E+03
 1.7341455E+01  1.9235957E+03
 1.7364779E+01  1.9273960E+03
 1.7388103E+01  1.9319392E+03
 1.7411427E+01  1.9366278E+03
 1.7434752E+01  1.9418461E+03
 1.7458075E+01  1.9517096E+03
 1.7481400E+01  1.9597601E+03
 1.7504723E+01  1.9694148E+03
 1.7528048E+01  1.9838103E+03
 1.7551371E+01  1.9991398E+03
 1.7574696E+01  2.0154801E+03
 1.7598019E+01  2.0325819E+03
 1.7621344E+01  2.0497595E+03
 1.7644669E+01  2.0684099E+03
 1.7667992E+01  2.0829053E+03
 1.7691317E+01  2.0843450E+03
 1.7714640E+01  2.0769624E+03
 1.7737965E+01  2.0702051E+03
 1.7761288E+01  2.0662065E+03
 1.7784613E+01  2.0640300E+03
 1.7807936E+01  2.0629985E+03
 1.7831261E+01  2.0593240E+03
 1.7854584E+01  2.0515576E+03
 1.7877909E+01  2.0473041E+03
 1.7901232E+01  2.0467529E+03
 1.7924557E+01  2.0462710E+03
 1.7947882E+01  2.0427709E+03
 1.7971205E+01  2.0391235E+03
 1.7994530E+01  2.0384329E+03
 1.8017853E+01  2.0373202E+03
 1.8041178E+01  2.0342986E+03
 1.8064501E+01  2.0327247E+03
 1.8087826E+01  2.0347878E+03
 1.8111149E+01  2.0376967E+03
 1.8134474E+01  2.0391727E+03
 1.8157797E+01  2.0423302E+03
 1.8181122E+01  2.0457021E+03
 1.8204445E+01  2.0498132E+03
 1.8227770E+01  2.0569707E+03
 1.8251093E+01  2.0672395E+03
 1.8274418E+01  2.0801445E+03
 1.8297743E+01  2.0975051E+03
 1.8321066E+01  2.1192449E+03
 1.8344391E+01  2.1563813E+03
 1.8367714E+01  2.5029077E+03
 1.8391039E+01  2.9843564E+03
 1.8414362E+01  3.1797122E+03
 1.8437687E+01  3.2267410E+03
 1.8461010E+01  3.2645149E+03
 1.8484335E+01  3.2883413E+03
 1.8507658E+01  3.2363394E+03
 1.8530983E+01  3.1975015E+03
 1.8554306E+01  3.2153533E+03
 1.8577631E+01  3.0078740E+03
 1.8600956E+01  2.5945237E+03
 1.8624279E+01  2.3087588E+03
 1.8647604E+01  2.2112192E+03
 1.8670927E+01  2.1672363E+03
 1.8694252E+01  2.1403123E+03
 1.8717575E+01  2.1219534E+03
 1.8740900E+01  2.1104004E+03
 1.8764223E+01  2.0976287E+03
 1.8787548E+01  2.0892749E+03
 1.8810871E+01  2.0878723E+03
 1.8834196E+01  2.0850237E+03
 1.8857519E+01  2.0812478E+03
 1.8880844E+01  2.0822930E+03
 1.8904169E+01  2.0845557E+03
 1.8927492E+01  2.0865732E+03
 1.8950817E+01  2.0870808E+03
 1.8974140E+01  2.0872073E+03
 1.8997465E+01  2.0892180E+03
 1.9020788E+01  2.0902661E+03
 1.9044113E+01  2.0878611E+03
 1.9067436E+01  2.0842498E+03
 1.9090761E+01  2.0832429E+03
 1.9114084E+01  2.0843535E+03
 1.9137409E+01  2.0853220E+03
 1.9160732E+01  2.0870208E+03
 1.9184057E+01  2.0878958E+03
 1.9207380E+01  2.0867004E+03
 1.9230705E+01  2.0889629E+03
 1.9254030E+01  2.0921980E+03
 1.9277353E+01  2.0920774E+03
 1.9300678E+01  2.0907107E+03
 1.9324001E+01  2.0929753E+03
 1.9347326E+01  2.0947446E+03
 1.9370649E+01  2.0963738E+03
 1.9393974E+01  2.0968938E+03
 1.9417297E+01  2.0992554E+03
 1.9440622E+01  2.1025977E+03
 1.9463945E+01  2.1044346E+03
 1.9487270E+01  2.1068916E+03
 1.9510593E+01  2.1089790E+03
 1.9533918E+01  2.1133293E+03
 1.9557243E+01  2.1202156E+03
 1.9580566E+01  2.1271045E+03
 1.9603891E+01  2.1299929E+03
 1.9627214E+01  2.1331938E+03
 1.9650539E+01  2.1369695E+03
 1.9673862E+01  2.1404785E+03
 1.9697187E+01  2.1403240E+03
 1.9720510E+01  2.1386497E+03
 1.9743835E+01  2.1373516E+03
 1.9767159E+01  2.1352329E+03
 1.9790483E+01  2.1357659E+03
 1.9813807E+01  2.1401121E+03
 1.9837132E+01  2.1415415E+03
 1.9860455E+01  2.1409070E+03
 1.9883780E+01  2.1409602E+03
 1.9907104E+01  2.1439834E+03
 1.9930428E+01  2.1448984E+03
 1.9953753E+01  2.1437256E+03
 1.9977076E+01  2.1432825E+03
 2.0000401E+01  2.1429856E+03
 2.0023724E+01  2.1427722E+03
 2.0047049E+01  2.1465845E+03
 2.0070372E+01  2.1487751E+03
 2.0093697E+01  2.1488530E+03
 2.0117020E+01  2.1505286E+03
 2.0140345E+01  2.1534958E+03
 2.0163668E+01  2.1548740E+03
 2.0186993E+01  2.1558413E+03
 2.0210318E+01  2.1567632E+03
 2.0233641E+01  2.1583259E+03
 2.0256966E+01  2.1628923E+03
 2.0280289E+01  2.1650698E+03
 2.0303614E+01  2.1662134E+03
 2.0326937E+01  2.1660110E+03
 2.0350262E+01  2.1676890E+03
 2.0373585E+01  2.1723105E+03
 2.0396910E+01  2.1763816E+03
 2.0420233E+01  2.1788083E+03
 2.0443558E+01  2.1801865E+03
 2.0466881E+01  2.1810181E+03
 2.0490206E+01  2.1841775E+03
 2.0513531E+01  2.1872991E+03
 2.0536854E+01  2.1896204E+03
 2.0560179E+01  2.1998452E+03
 2.0583502E+01  2.2163567E+03
 2.0606827E+01  2.2277671E+03
 2.0630150E+01  2.2244343E+03
 2.0653475E+01  2.2121270E+03
 2.0676798E+01  2.2089146E+03
 2.0700123E+01  2.2149924E+03
 2.0723446E+01  2.2231792E+03
 2.0746771E+01  2.2262056E+03
 2.0770094E+01  2.2202651E+03
 2.0793419E+01  2.2138081E+03
 2.0816742E+01  2.2088840E+03
 2.0840067E+01  2.2053833E+03
 2.0863392E+01  2.2054653E+03
 2.0886715E+01  2.2060537E+03
 2.0910040E+01  2.2073020E+03
 2.0933363E+01  2.2091641E+03
 2.0956688E+01  2.2110896E+03
 2.0980011E+01  2.2118853E+03
 2.1003336E+01  2.2131287E+03
 2.1026659E+01  2.2131802E+03
 2.1049984E+01  2.2169734E+03
 2.1073307E+01  2.2199900E+03
 2.1096632E+01  2.2233362E+03
 2.1119955E+01  2.2282808E+03
 2.1143280E+01  2.2327551E+03
 2.1166605E+01  2.2376970E+03
 2.1189928E+01  2.2431206E+03
 2.1213253E+01  2.2464653E+03
 2.1236576E+01  2.2485969E+03
 2.1259901E+01  2.2520510E+03
 2.1283224E+01  2.2552329E+03
 2.1306549E+01  2.2611453E+03
 2.1329872E+01  2.2682817E+03
 2.1353197E+01  2.2781492E+03
 2.1376520E+01  2.2893103E+03
 2.1399845E+01  2.3013931E+03
 2.1423168E+01  2.3198796E+03
 2.1446493E+01  2.3391428E+03
 2.1469816E+01  2.3577600E+03
 2.1493141E+01  2.3828699E+03
 2.1516466E+01  2.4366226E+03
 2.1539789E+01  2.6212310E+03
 2.1563114E+01  2.7978972E+03
 2.1586437E+01  2.9120679E+03
 2.1609762E+01  2.9301694E+03
 2.1633085E+01  3.0126509E+03
 2.1656410E+01  3.0462673E+03
 2.1679733E+01  3.1163960E+03
 2.1703058E+01  3.1318586E+03
 2.1726381E+01  3.0261755E+03
 2.1749706E+01  2.9287600E+03
 2.1773029E+01  2.8811003E+03
 2.1796354E+01  2.8068064E+03
 2.1819679E+01  2.7419136E+03
 2.1843002E+01  2.6368838E+03
 2.1866327E+01  2.5232898E+03
 2.1889650E+01  2.4333911E+03
 2.1912975E+01  2.3784731E+03
 2.1936298E+01  2.3431938E+03
 2.1959623E+01  2.3207466E+03
 2.1982946E+01  2.3080840E+03
 2.2006271E+01  2.2984717E+03
 2.2029594E+01  2.2908103E+03
 2.2052919E+01  2.2856235E+03
 2.2076242E+01  2.2837573E+03
 2.2099567E+01  2.2818767E+03
 2.2122890E+01  2.2788135E+03
 2.2146215E+01  2.2803391E+03
 2.2169540E+01  2.2826062E+03
 2.2192863E+01  2.2824810E+03
 2.2216188E+01  2.2812813E+03
 2.2239511E+01  2.2812473E+03
 2.2262836E+01  2.2834211E+03
 2.2286160E+01  2.2848037E+03
 2.2309484E+01  2.2862529E+03
 2.2332808E+01  2.2890056E+03
 2.2356133E+01  2.2901648E+03
 2.2379456E+01  2.2914084E+03
 2.2402781E+01  2.2938982E+03
 2.2426104E+01  2.2973174E+03
 2.2449429E+01  2.2986548E+03
 2.2472754E+01  2.3012275E+03
 2.2496077E+01  2.3068735E+03
 2.2519402E+01  2.3115498E+03
 2.2542725E+01  2.3212644E+03
 2.2566050E+01  2.3309626E+03
 2.2589373E+01  2.3508384E+03
 2.2612698E+01  2.3913376E+03
 2.2636021E+01  2.5465842E+03
 2.2659346E+01  2.7288938E+03
 2.2682669E+01  2.7798701E+03
 2.2705994E+01  2.6734636E+03
 2.2729317E+01  2.5234473E+03
 2.2752642E+01  2.4218154E+03
 2.2775967E+01  2.3655381E+03
 2.2799290E+01  2.3390786E+03
 2.2822615E+01  2.3253843E+03
 2.2845938E+01  2.3149365E+03
 2.2869263E+01  2.3110598E+03
 2.2892586E+01  2.3061941E+03
 2.2915911E+01  2.3039116E+03
 2.2939234E+01  2.3029441E+03
 2.2962559E+01  2.3030840E+03
 2.2985882E+01  2.3016453E+03
 2.3009207E+01  2.3003633E+03
 2.3032530E+01  2.3008394E+03
 2.3055855E+01  2.2978496E+03
 2.3079178E+01  2.2961003E+03
 2.3102503E+01  2.2947866E+03
 2.3125828E+01  2.2954114E+03
 2.3149151E+01  2.2955222E+03
 2.3172476E+01  2.2948281E+03
 2.3195799E+01  2.2955793E+03
 2.3219124E+01  2.2951125E+03
 2.3242447E+01  2.2950388E+03
 2.3265772E+01  2.2960522E+03
 2.3289095E+01  2.2963228E+03
 2.3312420E+01  2.2945608E+03
 2.3335743E+01  2.2945991E+03
 2.3359068E+01  2.2962932E+03
 2.3382391E+01  2.2808474E+03
 2.3405716E+01  2.2002720E+03
 2.3429041E+01  2.0664417E+03
 2.3452364E+01  1.9673777E+03
 2.3475689E+01  1.8985521E+03
 2.3499012E+01  1.8806624E+03
 2.3522337E+01  1.8936115E+03
 2.3545660E+01  1.9047169E+03
 2.3568985E+01  1.9041929E+03
 2.3592308E+01  1.8812239E+03
 2.3615633E+01  1.8395995E+03
 2.3638956E+01  1.7885844E+03
 2.3662281E+01  1.7378209E+03
 2.3685604E+01  1.6975566E+03
 2.3708929E+01  1.6587712E+03
 2.3732252E+01  1.6245580E+03
 2.3755577E+01  1.5967625E+03
 2.3778902E+01  1.5879388E+03
 2.3802225E+01  1.5992397E+03
 2.3825550E+01  1.6162709E+03
 2.3848873E+01  1.6305151E+03
 2.3872198E+01  1.6457915E+03
 2.3895521E+01  1.6618513E+03
 2.3918846E+01  1.6784363E+03
 2.3942169E+01  1.6953312E+03
 2.3965494E+01  1.7118364E+03
 2.3988817E+01  1.7275590E+03
 2.4012142E+01  1.7443456E+03
 2.4035465E+01  1.7605156E+03
 2.4058790E+01  1.7772606E+03
 2.4082115E+01  1.7903457E+03
 2.4105438E+01  1.8053866E+03
 2.4128763E+01  1.8228029E+03
 2.4152086E+01  1.8416375E+03
 2.4175411E+01  1.8574714E+03
 2.4198734E+01  1.8764791E+03
 2.4222059E+01  1.8945774E+03
 2.4245382E+01  1.9063158E+03
 2.4268707E+01  1.9169098E+03
 2.4292030E+01  1.9321204E+03
 2.4315355E+01  1.9511200E+03
 2.4338678E+01  1.9691512E+03
 2.4362003E+01  1.9996703E+03
 2.4385326E+01  2.0369294E+03
 2.4408651E+01  2.0781812E+03
 2.4431976E+01  2.0941746E+03
 2.4455299E+01  2.0984504E+03
 2.4478624E+01  2.0958586E+03
 2.4501947E+01  2.0966809E+03
 2.4525272E+01  2.1053059E+03
 2.4548595E+01  2.1198984E+03
 2.4571920E+01  2.1309419E+03
 2.4595243E+01  2.1414519E+03
 2.4618568E+01  2.1573171E+03
 2.4641891E+01  2.1668789E+03
 2.4665216E+01  2.1264375E+03
 2.4688540E+01  2.0480603E+03
 2.4711864E+01  1.9673372E+03
 2.4735189E+01  1.8756317E+03
 2.4758512E+01  1.7666744E+03
 2.4781837E+01  1.6659354E+03
 2.4805161E+01  1.5072285E+03
 2.4828485E+01  1.2799597E+03
 2.4851809E+01  1.2170382E+03
 2.4875134E+01  1.2114250E+03
 2.4898457E+01  1.1314355E+03
 2.4921782E+01  9.6618201E+02
 2.4945105E+01  7.0582953E+02
 2.4968430E+01  3.7052286E+02
 2.4991753E+01  7.7872299E+01
 2.5015078E+01  1.7019351E+00
 2.5038403E+01  0.0000000E+00
 2.5061726E+01  0.0000000E+00
 2.5085051E+01  0.0000000E+00
 2.5108374E+01  0.0000000E+00
 2.5131699E+01  0.0000000E+00
 2.5155022E+01  0.0000000E+00
 2.5178347E+01  0.0000000E+00
 2.5201670E+01  0.0000000E+00
 2.5224995E+01  0.0000000E+00
 2.5248318E+01  0.0000000E+00
 2.5271643E+01  0.0000000E+00
 2.5294966E+01  0.0000000E+00
 2.5318291E+01  0.0000000E+00
 2.5341614E+01  0.0000000E+00
 2.5364939E+01  0.0000000E+00
 2.5388264E+01  0.0000000E+00
 2.5411587E+01  0.0000000E+00
 2.5434912E+01  0.0000000E+00
 2.5458235E+01  0.0000000E+00
 2.5481560E+01  0.0000000E+00
 2.5504883E+01  0.0000000E+00
 2.5528208E+01  0.0000000E+00
 2.5551531E+01  0.0000000E+00
 2.5574856E+01  0.0000000E+00
 2.5598179E+01  0.0000000E+00
 2.5621504E+01  0.0000000E+00
 2.5644827E+01  0.0000000E+00
 2.5668152E+01  0.0000000E+00
 2.5691477E+01  0.0000000E+00
 2.5714800E+01  0.0000000E+00
 2.5738125E+01  0.0000000E+00
 2.5761448E+01  0.0000000E+00
 2.5784773E+01  0.0000000E+00
 2.5808096E+01  0.0000000E+00
 2.5831421E+01  0.0000000E+00
 2.5854744E+01  0.0000000E+00
 2.5878069E+01  0.0000000E+00
 2.5901392E+01  0.0000000E+00
 2.5924717E+01  0.0000000E+00
 2.5948040E+01  0.0000000E+00
 2.5971365E+01  0.0000000E+00
 2.5994688E+01  0.0000000E+00
 2.6018013E+01  0.0000000E+00
 2.6041338E+01  0.0000000E+00
 2.6064661E+01  0.0000000E+00
 2.6087986E+01  0.0000000E+00
 2.6111309E+01  0.0000000E+00
 2.6134634E+01  0.0000000E+00
 2.6157957E+01  0.0000000E+00
 2.6181282E+01  0.0000000E+00
 2.6204605E+01  0.0000000E+00
 2.6227930E+01  0.0000000E+00
 2.6251253E+01  0.0000000E+00
 2.6274578E+01  0.0000000E+00
 2.6297901E+01  0.0000000E+00
 2.6321226E+01  0.0000000E+00
 2.6344551E+01  0.0000000E+00
 2.6367874E+01  0.0000000E+00
 2.6391199E+01  0.0000000E+00
 2.6414522E+01  0.0000000E+00
 2.6437847E+01  0.0000000E+00
 2.6461170E+01  0.0000000E+00
 2.6484495E+01  0.0000000E+00
 2.6507818E+01  0.0000000E+00
 2.6531143E+01  0.0000000E+00
