D:\DATA\UserData\CuiTian20190403\CWH\BA\BA_16.tif: 2-theta Scan
2-Theta Angle (Degrees)
Intensity
       1481
 1.1054066E-02  4.0036484E+01
 3.3162199E-02  3.9700310E+01
 5.5270333E-02  4.1770374E+01
 7.7378467E-02  4.1940048E+01
 9.9486597E-02  4.0371113E+01
 1.2159473E-01  4.1171936E+01
 1.4370286E-01  4.2073685E+01
 1.6581100E-01  4.2272202E+01
 1.8791912E-01  4.2364773E+01
 2.1002726E-01  4.2422844E+01
 2.3213540E-01  4.2323181E+01
 2.5424352E-01  4.2062061E+01
 2.7635166E-01  4.1993244E+01
 2.9845980E-01  4.1067635E+01
 3.2056794E-01  4.1541286E+01
 3.4267604E-01  4.1181541E+01
 3.6478418E-01  4.0991104E+01
 3.8689232E-01  4.0959511E+01
 4.0900046E-01  4.1474850E+01
 4.3110859E-01  4.2614212E+01
 4.5321673E-01  4.1603779E+01
 4.7532487E-01  4.1349258E+01
 4.9743298E-01  4.1787045E+01
 5.1954114E-01  4.1474533E+01
 5.4164928E-01  4.1292404E+01
 5.6375736E-01  4.1730503E+01
 5.8586550E-01  4.1845173E+01
 6.0797364E-01  4.1560143E+01
 6.3008177E-01  4.1878925E+01
 6.5218991E-01  4.1429935E+01
 6.7429805E-01  4.1203350E+01
 6.9640619E-01  4.1396217E+01
 7.1851432E-01  4.1612900E+01
 7.4062246E-01  4.1715290E+01
 7.6273060E-01  4.1867672E+01
 7.8483874E-01  4.1740448E+01
 8.0694687E-01  4.1426235E+01
 8.2905495E-01  4.0927372E+01
 8.5116309E-01  4.1365822E+01
 8.7327123E-01  4.2232964E+01
 8.9537936E-01  4.2815777E+01
 9.1748750E-01  4.2554832E+01
 9.3959564E-01  4.2405472E+01
 9.6170378E-01  4.2943905E+01
 9.8381191E-01  4.3536083E+01
 1.0059201E+00  4.3558956E+01
 1.0280281E+00  4.3165096E+01
 1.0501363E+00  4.2901180E+01
 1.0722444E+00  4.2397057E+01
 1.0943526E+00  4.2502789E+01
 1.1164607E+00  4.2879723E+01
 1.1385689E+00  4.3027924E+01
 1.1606770E+00  4.2967251E+01
 1.1827852E+00  4.2849987E+01
 1.2048932E+00  4.2923931E+01
 1.2270014E+00  4.3053066E+01
 1.2491095E+00  4.3941811E+01
 1.2712176E+00  4.4667976E+01
 1.2933258E+00  4.4258533E+01
 1.3154339E+00  4.3955040E+01
 1.3375421E+00  4.3325790E+01
 1.3596501E+00  4.3480400E+01
 1.3817583E+00  4.4298424E+01
 1.4038664E+00  4.4494522E+01
 1.4259746E+00  4.4729225E+01
 1.4480827E+00  4.4942364E+01
 1.4701909E+00  4.4917324E+01
 1.4922990E+00  4.4815693E+01
 1.5144070E+00  4.4428242E+01
 1.5365152E+00  4.4218002E+01
 1.5586233E+00  4.4583527E+01
 1.5807315E+00  4.5271042E+01
 1.6028396E+00  4.5781860E+01
 1.6249478E+00  4.5896320E+01
 1.6470559E+00  4.6032440E+01
 1.6691641E+00  4.6471767E+01
 1.6912721E+00  4.7009548E+01
 1.7133803E+00  4.7893398E+01
 1.7354884E+00  4.8193298E+01
 1.7575966E+00  4.8500744E+01
 1.7797047E+00  4.9295731E+01
 1.8018128E+00  5.0346874E+01
 1.8239210E+00  5.1575874E+01
 1.8460290E+00  5.3882133E+01
 1.8681372E+00  5.7213829E+01
 1.8902453E+00  6.4960014E+01
 1.9123535E+00  8.1763268E+01
 1.9344616E+00  1.1063762E+02
 1.9565698E+00  1.4709569E+02
 1.9786779E+00  1.8564012E+02
 2.0007861E+00  2.2411755E+02
 2.0228941E+00  2.5996936E+02
 2.0450022E+00  2.9458569E+02
 2.0671103E+00  3.3009750E+02
 2.0892186E+00  3.7185898E+02
 2.1113267E+00  4.1898285E+02
 2.1334348E+00  4.7000125E+02
 2.1555429E+00  5.2584021E+02
 2.1776512E+00  5.8228381E+02
 2.1997592E+00  6.2773798E+02
 2.2218673E+00  6.6572992E+02
 2.2439754E+00  6.9940479E+02
 2.2660837E+00  7.3126056E+02
 2.2881918E+00  7.6475317E+02
 2.3102999E+00  7.9537164E+02
 2.3324080E+00  8.2542065E+02
 2.3545160E+00  8.5244482E+02
 2.3766243E+00  8.8043616E+02
 2.3987324E+00  9.1132709E+02
 2.4208405E+00  9.3811823E+02
 2.4429486E+00  9.6231470E+02
 2.4650569E+00  9.8503247E+02
 2.4871650E+00  1.0125793E+03
 2.5092731E+00  1.0335392E+03
 2.5313811E+00  1.0542310E+03
 2.5534894E+00  1.0774856E+03
 2.5755975E+00  1.1024169E+03
 2.5977056E+00  1.1231299E+03
 2.6198137E+00  1.1422072E+03
 2.6419218E+00  1.1628970E+03
 2.6640301E+00  1.1834783E+03
 2.6861382E+00  1.2018737E+03
 2.7082462E+00  1.2205758E+03
 2.7303543E+00  1.2398827E+03
 2.7524626E+00  1.2594742E+03
 2.7745707E+00  1.2771156E+03
 2.7966788E+00  1.2934440E+03
 2.8187869E+00  1.3108781E+03
 2.8408952E+00  1.3302916E+03
 2.8630033E+00  1.3477280E+03
 2.8851113E+00  1.3638140E+03
 2.9072194E+00  1.3816527E+03
 2.9293275E+00  1.3974352E+03
 2.9514358E+00  1.4119664E+03
 2.9735439E+00  1.4298638E+03
 2.9956520E+00  1.4467266E+03
 3.0177600E+00  1.4594727E+03
 3.0398684E+00  1.4693494E+03
 3.0619764E+00  1.4806262E+03
 3.0840845E+00  1.4921899E+03
 3.1061926E+00  1.5032458E+03
 3.1283009E+00  1.5136819E+03
 3.1504090E+00  1.5280264E+03
 3.1725171E+00  1.5415106E+03
 3.1946251E+00  1.5536643E+03
 3.2167332E+00  1.5641558E+03
 3.2388415E+00  1.5731547E+03
 3.2609496E+00  1.5817351E+03
 3.2830577E+00  1.5898932E+03
 3.3051658E+00  1.6011663E+03
 3.3272741E+00  1.6107813E+03
 3.3493822E+00  1.6206479E+03
 3.3714902E+00  1.6308717E+03
 3.3935983E+00  1.6401398E+03
 3.4157066E+00  1.6470592E+03
 3.4378147E+00  1.6552318E+03
 3.4599228E+00  1.6656909E+03
 3.4820309E+00  1.6753732E+03
 3.5041389E+00  1.6860479E+03
 3.5262473E+00  1.6952767E+03
 3.5483553E+00  1.7043521E+03
 3.5704634E+00  1.7112611E+03
 3.5925715E+00  1.7204117E+03
 3.6146798E+00  1.7288075E+03
 3.6367879E+00  1.7348467E+03
 3.6588960E+00  1.7424180E+03
 3.6810040E+00  1.7495537E+03
 3.7031121E+00  1.7544338E+03
 3.7252204E+00  1.7591415E+03
 3.7473285E+00  1.7623909E+03
 3.7694366E+00  1.7673207E+03
 3.7915447E+00  1.7718177E+03
 3.8136530E+00  1.7779355E+03
 3.8357611E+00  1.7852535E+03
 3.8578691E+00  1.7921179E+03
 3.8799772E+00  1.7964900E+03
 3.9020855E+00  1.8013467E+03
 3.9241936E+00  1.8082338E+03
 3.9463017E+00  1.8134580E+03
 3.9684098E+00  1.8163185E+03
 3.9905179E+00  1.8213665E+03
 4.0126262E+00  1.8265698E+03
 4.0347342E+00  1.8304430E+03
 4.0568423E+00  1.8353611E+03
 4.0789504E+00  1.8404307E+03
 4.1010585E+00  1.8428730E+03
 4.1231666E+00  1.8461663E+03
 4.1452751E+00  1.8509290E+03
 4.1673832E+00  1.8543794E+03
 4.1894913E+00  1.8573010E+03
 4.2115993E+00  1.8620052E+03
 4.2337074E+00  1.8642562E+03
 4.2558155E+00  1.8659312E+03
 4.2779236E+00  1.8676016E+03
 4.3000317E+00  1.8721306E+03
 4.3221397E+00  1.8777058E+03
 4.3442483E+00  1.8811591E+03
 4.3663564E+00  1.8809359E+03
 4.3884645E+00  1.8823026E+03
 4.4105725E+00  1.8873654E+03
 4.4326806E+00  1.8906448E+03
 4.4547887E+00  1.8929271E+03
 4.4768968E+00  1.8945626E+03
 4.4990048E+00  1.8934452E+03
 4.5211129E+00  1.8936392E+03
 4.5432215E+00  1.8986899E+03
 4.5653296E+00  1.9027479E+03
 4.5874376E+00  1.9016813E+03
 4.6095457E+00  1.9020649E+03
 4.6316538E+00  1.9040278E+03
 4.6537619E+00  1.9054441E+03
 4.6758699E+00  1.9065585E+03
 4.6979780E+00  1.9105942E+03
 4.7200866E+00  1.9113234E+03
 4.7421947E+00  1.9105188E+03
 4.7643027E+00  1.9119409E+03
 4.7864108E+00  1.9106494E+03
 4.8085189E+00  1.9104130E+03
 4.8306270E+00  1.9142345E+03
 4.8527350E+00  1.9149211E+03
 4.8748431E+00  1.9163419E+03
 4.8969512E+00  1.9181111E+03
 4.9190598E+00  1.9170099E+03
 4.9411678E+00  1.9167358E+03
 4.9632759E+00  1.9168582E+03
 4.9853840E+00  1.9185519E+03
 5.0074921E+00  1.9173595E+03
 5.0296001E+00  1.9179078E+03
 5.0517082E+00  1.9200823E+03
 5.0738163E+00  1.9213939E+03
 5.0959244E+00  1.9193973E+03
 5.1180329E+00  1.9183245E+03
 5.1401410E+00  1.9198649E+03
 5.1622491E+00  1.9196057E+03
 5.1843572E+00  1.9203025E+03
 5.2064652E+00  1.9225400E+03
 5.2285733E+00  1.9210509E+03
 5.2506814E+00  1.9212561E+03
 5.2727895E+00  1.9194016E+03
 5.2948980E+00  1.9197808E+03
 5.3170061E+00  1.9217480E+03
 5.3391142E+00  1.9216104E+03
 5.3612223E+00  1.9191176E+03
 5.3833303E+00  1.9169243E+03
 5.4054384E+00  1.9175184E+03
 5.4275465E+00  1.9173910E+03
 5.4496546E+00  1.9166429E+03
 5.4717627E+00  1.9170874E+03
 5.4938712E+00  1.9169861E+03
 5.5159793E+00  1.9152646E+03
 5.5380874E+00  1.9147352E+03
 5.5601954E+00  1.9144327E+03
 5.5823035E+00  1.9141300E+03
 5.6044116E+00  1.9132805E+03
 5.6265197E+00  1.9130156E+03
 5.6486278E+00  1.9105968E+03
 5.6707358E+00  1.9092614E+03
 5.6928444E+00  1.9119906E+03
 5.7149525E+00  1.9125651E+03
 5.7370605E+00  1.9107598E+03
 5.7591686E+00  1.9091140E+03
 5.7812767E+00  1.9113856E+03
 5.8033848E+00  1.9107004E+03
 5.8254929E+00  1.9103124E+03
 5.8476009E+00  1.9125448E+03
 5.8697095E+00  1.9125758E+03
 5.8918176E+00  1.9087250E+03
 5.9139256E+00  1.9066494E+03
 5.9360337E+00  1.9060186E+03
 5.9581418E+00  1.9040107E+03
 5.9802499E+00  1.9041532E+03
 6.0023580E+00  1.9055288E+03
 6.0244660E+00  1.9083208E+03
 6.0465741E+00  1.9077246E+03
 6.0686827E+00  1.9062815E+03
 6.0907907E+00  1.9049590E+03
 6.1128988E+00  1.9034194E+03
 6.1350069E+00  1.9013320E+03
 6.1571150E+00  1.9013091E+03
 6.1792231E+00  1.9028777E+03
 6.2013311E+00  1.9041372E+03
 6.2234392E+00  1.9042021E+03
 6.2455473E+00  1.9045205E+03
 6.2676558E+00  1.9031283E+03
 6.2897639E+00  1.9033300E+03
 6.3118720E+00  1.9005824E+03
 6.3339801E+00  1.8995082E+03
 6.3560882E+00  1.9002386E+03
 6.3781962E+00  1.9022787E+03
 6.4003043E+00  1.9018761E+03
 6.4224124E+00  1.9000171E+03
 6.4445205E+00  1.8983745E+03
 6.4666290E+00  1.8952577E+03
 6.4887371E+00  1.8947159E+03
 6.5108452E+00  1.8956255E+03
 6.5329533E+00  1.8944552E+03
 6.5550613E+00  1.8929115E+03
 6.5771694E+00  1.8928344E+03
 6.5992775E+00  1.8913058E+03
 6.6213856E+00  1.8916683E+03
 6.6434941E+00  1.8912758E+03
 6.6656022E+00  1.8910446E+03
 6.6877103E+00  1.8917499E+03
 6.7098184E+00  1.8905206E+03
 6.7319264E+00  1.8871458E+03
 6.7540345E+00  1.8859012E+03
 6.7761426E+00  1.8855760E+03
 6.7982507E+00  1.8861698E+03
 6.8203588E+00  1.8873411E+03
 6.8424673E+00  1.8845634E+03
 6.8645754E+00  1.8796857E+03
 6.8866835E+00  1.8793138E+03
 6.9087915E+00  1.8809264E+03
 6.9308996E+00  1.8813386E+03
 6.9530077E+00  1.8812869E+03
 6.9751158E+00  1.8819108E+03
 6.9972239E+00  1.8820638E+03
 7.0193319E+00  1.8832545E+03
 7.0414405E+00  1.8822275E+03
 7.0635486E+00  1.8816534E+03
 7.0856566E+00  1.8802769E+03
 7.1077647E+00  1.8759473E+03
 7.1298728E+00  1.8733013E+03
 7.1519809E+00  1.8757743E+03
 7.1740890E+00  1.8768574E+03
 7.1961970E+00  1.8772339E+03
 7.2183056E+00  1.8745178E+03
 7.2404137E+00  1.8729695E+03
 7.2625217E+00  1.8714736E+03
 7.2846298E+00  1.8706710E+03
 7.3067379E+00  1.8712892E+03
 7.3288460E+00  1.8704055E+03
 7.3509541E+00  1.8702333E+03
 7.3730621E+00  1.8712289E+03
 7.3951702E+00  1.8715579E+03
 7.4172788E+00  1.8696732E+03
 7.4393868E+00  1.8695195E+03
 7.4614949E+00  1.8667360E+03
 7.4836030E+00  1.8647501E+03
 7.5057111E+00  1.8660428E+03
 7.5278192E+00  1.8669221E+03
 7.5499272E+00  1.8654849E+03
 7.5720353E+00  1.8664662E+03
 7.5941434E+00  1.8672845E+03
 7.6162519E+00  1.8650704E+03
 7.6383600E+00  1.8631785E+03
 7.6604681E+00  1.8624164E+03
 7.6825762E+00  1.8626332E+03
 7.7046843E+00  1.8622094E+03
 7.7267923E+00  1.8613772E+03
 7.7489004E+00  1.8606388E+03
 7.7710085E+00  1.8604932E+03
 7.7931170E+00  1.8591285E+03
 7.8152251E+00  1.8599341E+03
 7.8373332E+00  1.8595259E+03
 7.8594413E+00  1.8597625E+03
 7.8815494E+00  1.8610504E+03
 7.9036574E+00  1.8629139E+03
 7.9257655E+00  1.8626072E+03
 7.9478736E+00  1.8625552E+03
 7.9699817E+00  1.8623162E+03
 7.9920902E+00  1.8614419E+03
 8.0141983E+00  1.8635524E+03
 8.0363064E+00  1.8662605E+03
 8.0584145E+00  1.8672720E+03
 8.0805225E+00  1.8684253E+03
 8.1026306E+00  1.8683307E+03
 8.1247387E+00  1.8695219E+03
 8.1468468E+00  1.8718636E+03
 8.1689548E+00  1.8749213E+03
 8.1910629E+00  1.8786244E+03
 8.2131710E+00  1.8812257E+03
 8.2352791E+00  1.8808344E+03
 8.2573872E+00  1.8808778E+03
 8.2794962E+00  1.8807352E+03
 8.3016043E+00  1.8777344E+03
 8.3237123E+00  1.8746488E+03
 8.3458204E+00  1.8719855E+03
 8.3679285E+00  1.8678658E+03
 8.3900366E+00  1.8660421E+03
 8.4121447E+00  1.8641489E+03
 8.4342527E+00  1.8627020E+03
 8.4563608E+00  1.8625553E+03
 8.4784689E+00  1.8619979E+03
 8.5005770E+00  1.8617610E+03
 8.5226851E+00  1.8614342E+03
 8.5447931E+00  1.8619551E+03
 8.5669012E+00  1.8637478E+03
 8.5890093E+00  1.8657982E+03
 8.6111174E+00  1.8665739E+03
 8.6332254E+00  1.8662949E+03
 8.6553335E+00  1.8679570E+03
 8.6774426E+00  1.8682777E+03
 8.6995506E+00  1.8677732E+03
 8.7216587E+00  1.8675568E+03
 8.7437668E+00  1.8685261E+03
 8.7658749E+00  1.8676980E+03
 8.7879829E+00  1.8657888E+03
 8.8100910E+00  1.8648538E+03
 8.8321991E+00  1.8647437E+03
 8.8543072E+00  1.8655131E+03
 8.8764153E+00  1.8646664E+03
 8.8985233E+00  1.8612318E+03
 8.9206314E+00  1.8594152E+03
 8.9427395E+00  1.8593057E+03
 8.9648476E+00  1.8600924E+03
 8.9869556E+00  1.8607771E+03
 9.0090637E+00  1.8607355E+03
 9.0311718E+00  1.8602544E+03
 9.0532808E+00  1.8594381E+03
 9.0753889E+00  1.8590658E+03
 9.0974970E+00  1.8599039E+03
 9.1196051E+00  1.8614595E+03
 9.1417131E+00  1.8632792E+03
 9.1638212E+00  1.8642097E+03
 9.1859293E+00  1.8637274E+03
 9.2080374E+00  1.8652864E+03
 9.2301455E+00  1.8667009E+03
 9.2522535E+00  1.8671108E+03
 9.2743616E+00  1.8687075E+03
 9.2964697E+00  1.8697246E+03
 9.3185778E+00  1.8694437E+03
 9.3406858E+00  1.8711816E+03
 9.3627939E+00  1.8738478E+03
 9.3849020E+00  1.8770820E+03
 9.4070101E+00  1.8798842E+03
 9.4291191E+00  1.8821206E+03
 9.4512272E+00  1.8820938E+03
 9.4733353E+00  1.8845336E+03
 9.4954433E+00  1.8874553E+03
 9.5175514E+00  1.8881837E+03
 9.5396595E+00  1.8875067E+03
 9.5617676E+00  1.8860780E+03
 9.5838757E+00  1.8869099E+03
 9.6059837E+00  1.8861375E+03
 9.6280918E+00  1.8843210E+03
 9.6501999E+00  1.8839009E+03
 9.6723080E+00  1.8846528E+03
 9.6944160E+00  1.8857056E+03
 9.7165241E+00  1.8895341E+03
 9.7386322E+00  1.8929121E+03
 9.7607403E+00  1.8931958E+03
 9.7828484E+00  1.8954023E+03
 9.8049564E+00  1.9003461E+03
 9.8270655E+00  1.9047385E+03
 9.8491735E+00  1.9060388E+03
 9.8712816E+00  1.9064481E+03
 9.8933897E+00  1.9072893E+03
 9.9154978E+00  1.9071653E+03
 9.9376059E+00  1.9081624E+03
 9.9597139E+00  1.9074652E+03
 9.9818220E+00  1.9065834E+03
 1.0003930E+01  1.9075884E+03
 1.0026038E+01  1.9100066E+03
 1.0048146E+01  1.9122916E+03
 1.0070254E+01  1.9138588E+03
 1.0092362E+01  1.9155804E+03
 1.0114470E+01  1.9187393E+03
 1.0136579E+01  1.9215350E+03
 1.0158687E+01  1.9250811E+03
 1.0180795E+01  1.9318262E+03
 1.0202904E+01  1.9393411E+03
 1.0225012E+01  1.9482494E+03
 1.0247120E+01  1.9574995E+03
 1.0269228E+01  1.9672731E+03
 1.0291336E+01  1.9803152E+03
 1.0313444E+01  1.9936021E+03
 1.0335552E+01  2.0068298E+03
 1.0357660E+01  2.0227849E+03
 1.0379768E+01  2.0400162E+03
 1.0401876E+01  2.0575691E+03
 1.0423985E+01  2.0747944E+03
 1.0446093E+01  2.0946895E+03
 1.0468201E+01  2.1135789E+03
 1.0490309E+01  2.1270400E+03
 1.0512417E+01  2.1310903E+03
 1.0534525E+01  2.1278103E+03
 1.0556633E+01  2.1197793E+03
 1.0578741E+01  2.1088586E+03
 1.0600850E+01  2.0994724E+03
 1.0622958E+01  2.0930420E+03
 1.0645066E+01  2.0873696E+03
 1.0667174E+01  2.0752744E+03
 1.0689282E+01  2.0598315E+03
 1.0711390E+01  2.0426508E+03
 1.0733499E+01  2.0250906E+03
 1.0755607E+01  2.0120348E+03
 1.0777715E+01  2.0032162E+03
 1.0799823E+01  1.9943966E+03
 1.0821931E+01  1.9857716E+03
 1.0844039E+01  1.9792297E+03
 1.0866147E+01  1.9756239E+03
 1.0888255E+01  1.9738588E+03
 1.0910363E+01  1.9735280E+03
 1.0932471E+01  1.9741216E+03
 1.0954579E+01  1.9747893E+03
 1.0976688E+01  1.9768215E+03
 1.0998796E+01  1.9782885E+03
 1.1020905E+01  1.9803729E+03
 1.1043013E+01  1.9844755E+03
 1.1065121E+01  1.9878374E+03
 1.1087229E+01  1.9902773E+03
 1.1109337E+01  1.9933035E+03
 1.1131445E+01  1.9948134E+03
 1.1153553E+01  1.9935118E+03
 1.1175661E+01  1.9910146E+03
 1.1197769E+01  1.9907975E+03
 1.1219877E+01  1.9919722E+03
 1.1241985E+01  1.9914547E+03
 1.1264093E+01  1.9939059E+03
 1.1286201E+01  1.9975656E+03
 1.1308310E+01  2.0003289E+03
 1.1330418E+01  2.0056423E+03
 1.1352527E+01  2.0089374E+03
 1.1374635E+01  2.0123279E+03
 1.1396743E+01  2.0191323E+03
 1.1418851E+01  2.0270867E+03
 1.1440959E+01  2.0322382E+03
 1.1463067E+01  2.0339991E+03
 1.1485175E+01  2.0348181E+03
 1.1507283E+01  2.0341603E+03
 1.1529391E+01  2.0344268E+03
 1.1551499E+01  2.0358223E+03
 1.1573607E+01  2.0384724E+03
 1.1595716E+01  2.0404089E+03
 1.1617824E+01  2.0344219E+03
 1.1639932E+01  2.0243802E+03
 1.1662040E+01  2.0171656E+03
 1.1684148E+01  2.0105872E+03
 1.1706256E+01  2.0052773E+03
 1.1728364E+01  1.9995681E+03
 1.1750473E+01  1.9963951E+03
 1.1772581E+01  1.9924877E+03
 1.1794689E+01  1.9897808E+03
 1.1816797E+01  1.9881337E+03
 1.1838905E+01  1.9880555E+03
 1.1861013E+01  1.9899191E+03
 1.1883121E+01  1.9908591E+03
 1.1905230E+01  1.9931929E+03
 1.1927338E+01  1.9969248E+03
 1.1949446E+01  2.0002411E+03
 1.1971554E+01  2.0048091E+03
 1.1993662E+01  2.0108647E+03
 1.2015770E+01  2.0179545E+03
 1.2037878E+01  2.0283708E+03
 1.2059986E+01  2.0397937E+03
 1.2082094E+01  2.0506084E+03
 1.2104202E+01  2.0649248E+03
 1.2126311E+01  2.0801819E+03
 1.2148419E+01  2.0918435E+03
 1.2170527E+01  2.1017800E+03
 1.2192636E+01  2.1094971E+03
 1.2214744E+01  2.1122139E+03
 1.2236852E+01  2.1102930E+03
 1.2258960E+01  2.1022241E+03
 1.2281068E+01  2.0907883E+03
 1.2303176E+01  2.0787532E+03
 1.2325284E+01  2.0652683E+03
 1.2347392E+01  2.0517844E+03
 1.2369500E+01  2.0385431E+03
 1.2391608E+01  2.0283375E+03
 1.2413716E+01  2.0181804E+03
 1.2435824E+01  2.0109624E+03
 1.2457932E+01  2.0048048E+03
 1.2480041E+01  2.0012345E+03
 1.2502149E+01  1.9961945E+03
 1.2524258E+01  1.9915679E+03
 1.2546366E+01  1.9881569E+03
 1.2568474E+01  1.9842859E+03
 1.2590582E+01  1.9789707E+03
 1.2612690E+01  1.9745315E+03
 1.2634798E+01  1.9701793E+03
 1.2656906E+01  1.9679961E+03
 1.2679014E+01  1.9665948E+03
 1.2701122E+01  1.9651135E+03
 1.2723230E+01  1.9636411E+03
 1.2745338E+01  1.9605935E+03
 1.2767447E+01  1.9564459E+03
 1.2789555E+01  1.9556527E+03
 1.2811663E+01  1.9557758E+03
 1.2833771E+01  1.9564049E+03
 1.2855879E+01  1.9547732E+03
 1.2877987E+01  1.9526837E+03
 1.2900096E+01  1.9515134E+03
 1.2922204E+01  1.9511973E+03
 1.2944312E+01  1.9504940E+03
 1.2966420E+01  1.9491453E+03
 1.2988528E+01  1.9486279E+03
 1.3010636E+01  1.9486754E+03
 1.3032744E+01  1.9484840E+03
 1.3054852E+01  1.9465150E+03
 1.3076961E+01  1.9464384E+03
 1.3099069E+01  1.9470936E+03
 1.3121177E+01  1.9469170E+03
 1.3143285E+01  1.9454362E+03
 1.3165393E+01  1.9453118E+03
 1.3187501E+01  1.9452004E+03
 1.3209609E+01  1.9458979E+03
 1.3231717E+01  1.9461116E+03
 1.3253825E+01  1.9467059E+03
 1.3275933E+01  1.9476388E+03
 1.3298042E+01  1.9476714E+03
 1.3320150E+01  1.9478652E+03
 1.3342258E+01  1.9485876E+03
 1.3364367E+01  1.9473737E+03
 1.3386475E+01  1.9486401E+03
 1.3408583E+01  1.9489729E+03
 1.3430691E+01  1.9499884E+03
 1.3452799E+01  1.9507510E+03
 1.3474907E+01  1.9525056E+03
 1.3497015E+01  1.9540635E+03
 1.3519123E+01  1.9544214E+03
 1.3541231E+01  1.9550862E+03
 1.3563339E+01  1.9567344E+03
 1.3585447E+01  1.9572103E+03
 1.3607555E+01  1.9587253E+03
 1.3629663E+01  1.9587275E+03
 1.3651772E+01  1.9586808E+03
 1.3673881E+01  1.9584937E+03
 1.3695989E+01  1.9589550E+03
 1.3718097E+01  1.9595691E+03
 1.3740205E+01  1.9598553E+03
 1.3762313E+01  1.9589006E+03
 1.3784421E+01  1.9581517E+03
 1.3806529E+01  1.9590787E+03
 1.3828637E+01  1.9614260E+03
 1.3850745E+01  1.9625483E+03
 1.3872853E+01  1.9625673E+03
 1.3894961E+01  1.9620510E+03
 1.3917069E+01  1.9629497E+03
 1.3939178E+01  1.9647958E+03
 1.3961286E+01  1.9664865E+03
 1.3983394E+01  1.9664528E+03
 1.4005502E+01  1.9666570E+03
 1.4027610E+01  1.9655703E+03
 1.4049719E+01  1.9647405E+03
 1.4071827E+01  1.9663558E+03
 1.4093935E+01  1.9662394E+03
 1.4116043E+01  1.9659451E+03
 1.4138151E+01  1.9672533E+03
 1.4160259E+01  1.9670024E+03
 1.4182367E+01  1.9677517E+03
 1.4204475E+01  1.9687617E+03
 1.4226583E+01  1.9689515E+03
 1.4248692E+01  1.9694357E+03
 1.4270800E+01  1.9698306E+03
 1.4292908E+01  1.9694845E+03
 1.4315016E+01  1.9696748E+03
 1.4337124E+01  1.9711807E+03
 1.4359232E+01  1.9716240E+03
 1.4381340E+01  1.9718783E+03
 1.4403448E+01  1.9723129E+03
 1.4425556E+01  1.9726041E+03
 1.4447665E+01  1.9739924E+03
 1.4469773E+01  1.9748915E+03
 1.4491881E+01  1.9757510E+03
 1.4513989E+01  1.9765540E+03
 1.4536098E+01  1.9778152E+03
 1.4558206E+01  1.9778770E+03
 1.4580314E+01  1.9775942E+03
 1.4602422E+01  1.9796279E+03
 1.4624530E+01  1.9789574E+03
 1.4646638E+01  1.9788307E+03
 1.4668746E+01  1.9805525E+03
 1.4690854E+01  1.9828079E+03
 1.4712962E+01  1.9838243E+03
 1.4735070E+01  1.9848290E+03
 1.4757178E+01  1.9853655E+03
 1.4779286E+01  1.9856024E+03
 1.4801394E+01  1.9875815E+03
 1.4823503E+01  1.9885933E+03
 1.4845612E+01  1.9895996E+03
 1.4867720E+01  1.9903929E+03
 1.4889828E+01  1.9909989E+03
 1.4911936E+01  1.9936770E+03
 1.4934044E+01  1.9960659E+03
 1.4956152E+01  1.9990813E+03
 1.4978260E+01  2.0004706E+03
 1.5000368E+01  2.0002306E+03
 1.5022476E+01  2.0012429E+03
 1.5044584E+01  2.0020778E+03
 1.5066692E+01  2.0035100E+03
 1.5088800E+01  2.0048665E+03
 1.5110909E+01  2.0043254E+03
 1.5133017E+01  2.0036934E+03
 1.5155125E+01  2.0029469E+03
 1.5177233E+01  2.0032819E+03
 1.5199341E+01  2.0022118E+03
 1.5221450E+01  2.0020560E+03
 1.5243558E+01  2.0019950E+03
 1.5265666E+01  2.0019940E+03
 1.5287774E+01  2.0027831E+03
 1.5309882E+01  2.0030084E+03
 1.5331990E+01  2.0022301E+03
 1.5354098E+01  2.0010010E+03
 1.5376206E+01  2.0015780E+03
 1.5398314E+01  2.0016755E+03
 1.5420423E+01  2.0024625E+03
 1.5442531E+01  2.0028568E+03
 1.5464639E+01  2.0039747E+03
 1.5486747E+01  2.0052427E+03
 1.5508855E+01  2.0061813E+03
 1.5530963E+01  2.0058021E+03
 1.5553071E+01  2.0064645E+03
 1.5575179E+01  2.0087955E+03
 1.5597288E+01  2.0086997E+03
 1.5619396E+01  2.0094006E+03
 1.5641504E+01  2.0090350E+03
 1.5663612E+01  2.0097894E+03
 1.5685720E+01  2.0118510E+03
 1.5707829E+01  2.0111786E+03
 1.5729937E+01  2.0110864E+03
 1.5752045E+01  2.0121942E+03
 1.5774153E+01  2.0124695E+03
 1.5796261E+01  2.0132676E+03
 1.5818369E+01  2.0146587E+03
 1.5840477E+01  2.0139821E+03
 1.5862585E+01  2.0139149E+03
 1.5884693E+01  2.0144744E+03
 1.5906801E+01  2.0146736E+03
 1.5928909E+01  2.0167728E+03
 1.5951017E+01  2.0177903E+03
 1.5973126E+01  2.0167124E+03
 1.5995234E+01  2.0173048E+03
 1.6017342E+01  2.0173070E+03
 1.6039450E+01  2.0173159E+03
 1.6061558E+01  2.0173458E+03
 1.6083666E+01  2.0161493E+03
 1.6105774E+01  2.0156989E+03
 1.6127882E+01  2.0163617E+03
 1.6149990E+01  2.0156614E+03
 1.6172100E+01  2.0154631E+03
 1.6194208E+01  2.0152333E+03
 1.6216316E+01  2.0149897E+03
 1.6238424E+01  2.0176786E+03
 1.6260532E+01  2.0155692E+03
 1.6282640E+01  2.0128387E+03
 1.6304749E+01  2.0129777E+03
 1.6326857E+01  2.0142256E+03
 1.6348965E+01  2.0143348E+03
 1.6371073E+01  2.0148883E+03
 1.6393181E+01  2.0155083E+03
 1.6415289E+01  2.0167960E+03
 1.6437397E+01  2.0154695E+03
 1.6459505E+01  2.0148240E+03
 1.6481613E+01  2.0180413E+03
 1.6503721E+01  2.0205101E+03
 1.6525829E+01  2.0198900E+03
 1.6547937E+01  2.0202947E+03
 1.6570045E+01  2.0224791E+03
 1.6592154E+01  2.0228757E+03
 1.6614262E+01  2.0245208E+03
 1.6636370E+01  2.0269855E+03
 1.6658478E+01  2.0310682E+03
 1.6680586E+01  2.0372676E+03
 1.6702694E+01  2.0454810E+03
 1.6724802E+01  2.0572649E+03
 1.6746910E+01  2.0699795E+03
 1.6769018E+01  2.0832046E+03
 1.6791126E+01  2.0973796E+03
 1.6813234E+01  2.1080088E+03
 1.6835342E+01  2.1119849E+03
 1.6857450E+01  2.1075447E+03
 1.6879559E+01  2.0966147E+03
 1.6901667E+01  2.0850137E+03
 1.6923775E+01  2.0730342E+03
 1.6945885E+01  2.0613813E+03
 1.6967993E+01  2.0504922E+03
 1.6990101E+01  2.0424570E+03
 1.7012209E+01  2.0383396E+03
 1.7034317E+01  2.0381981E+03
 1.7056425E+01  2.0377031E+03
 1.7078533E+01  2.0387192E+03
 1.7100641E+01  2.0408347E+03
 1.7122749E+01  2.0432955E+03
 1.7144857E+01  2.0468643E+03
 1.7166965E+01  2.0487327E+03
 1.7189074E+01  2.0499387E+03
 1.7211182E+01  2.0506194E+03
 1.7233290E+01  2.0488794E+03
 1.7255398E+01  2.0464366E+03
 1.7277506E+01  2.0437806E+03
 1.7299614E+01  2.0397579E+03
 1.7321722E+01  2.0363492E+03
 1.7343830E+01  2.0314663E+03
 1.7365938E+01  2.0274481E+03
 1.7388046E+01  2.0230599E+03
 1.7410154E+01  2.0182306E+03
 1.7432262E+01  2.0133446E+03
 1.7454370E+01  2.0096134E+03
 1.7476479E+01  2.0065929E+03
 1.7498587E+01  2.0056179E+03
 1.7520695E+01  2.0037373E+03
 1.7542803E+01  2.0013248E+03
 1.7564911E+01  2.0001254E+03
 1.7587019E+01  1.9978955E+03
 1.7609127E+01  1.9944775E+03
 1.7631235E+01  1.9918799E+03
 1.7653343E+01  1.9898964E+03
 1.7675451E+01  1.9880938E+03
 1.7697559E+01  1.9866230E+03
 1.7719669E+01  1.9833406E+03
 1.7741777E+01  1.9807716E+03
 1.7763885E+01  1.9787463E+03
 1.7785994E+01  1.9768431E+03
 1.7808102E+01  1.9749784E+03
 1.7830210E+01  1.9735359E+03
 1.7852318E+01  1.9720754E+03
 1.7874426E+01  1.9726749E+03
 1.7896534E+01  1.9717540E+03
 1.7918642E+01  1.9697332E+03
 1.7940750E+01  1.9684938E+03
 1.7962858E+01  1.9666471E+03
 1.7984966E+01  1.9641737E+03
 1.8007074E+01  1.9623019E+03
 1.8029182E+01  1.9608685E+03
 1.8051291E+01  1.9583512E+03
 1.8073399E+01  1.9552079E+03
 1.8095507E+01  1.9515978E+03
 1.8117615E+01  1.9494091E+03
 1.8139723E+01  1.9474507E+03
 1.8161831E+01  1.9450155E+03
 1.8183939E+01  1.9428750E+03
 1.8206047E+01  1.9403712E+03
 1.8228155E+01  1.9387925E+03
 1.8250263E+01  1.9376171E+03
 1.8272371E+01  1.9354213E+03
 1.8294479E+01  1.9333430E+03
 1.8316587E+01  1.9320997E+03
 1.8338696E+01  1.9305731E+03
 1.8360804E+01  1.9265906E+03
 1.8382912E+01  1.9233274E+03
 1.8405020E+01  1.9223177E+03
 1.8427128E+01  1.9221282E+03
 1.8449236E+01  1.9209354E+03
 1.8471344E+01  1.9174454E+03
 1.8493454E+01  1.9149156E+03
 1.8515562E+01  1.9145298E+03
 1.8537670E+01  1.9131685E+03
 1.8559778E+01  1.9109143E+03
 1.8581886E+01  1.9083270E+03
 1.8603994E+01  1.9061006E+03
 1.8626102E+01  1.9038323E+03
 1.8648211E+01  1.9017842E+03
 1.8670319E+01  1.8999153E+03
 1.8692427E+01  1.8982417E+03
 1.8714535E+01  1.8951586E+03
 1.8736643E+01  1.8935577E+03
 1.8758751E+01  1.8901580E+03
 1.8780859E+01  1.8874780E+03
 1.8802967E+01  1.8863844E+03
 1.8825075E+01  1.8857770E+03
 1.8847183E+01  1.8835072E+03
 1.8869291E+01  1.8802617E+03
 1.8891399E+01  1.8775634E+03
 1.8913507E+01  1.8761486E+03
 1.8935616E+01  1.8744691E+03
 1.8957724E+01  1.8731924E+03
 1.8979832E+01  1.8706154E+03
 1.9001940E+01  1.8701704E+03
 1.9024048E+01  1.8700601E+03
 1.9046156E+01  1.8679550E+03
 1.9068264E+01  1.8640380E+03
 1.9090372E+01  1.8609418E+03
 1.9112480E+01  1.8589324E+03
 1.9134588E+01  1.8565941E+03
 1.9156696E+01  1.8541665E+03
 1.9178804E+01  1.8536810E+03
 1.9200912E+01  1.8510729E+03
 1.9223021E+01  1.8493132E+03
 1.9245131E+01  1.8474722E+03
 1.9267239E+01  1.8461833E+03
 1.9289347E+01  1.8440933E+03
 1.9311455E+01  1.8428276E+03
 1.9333563E+01  1.8420188E+03
 1.9355671E+01  1.8404768E+03
 1.9377779E+01  1.8394537E+03
 1.9399887E+01  1.8370289E+03
 1.9421995E+01  1.8358207E+03
 1.9444103E+01  1.8343729E+03
 1.9466211E+01  1.8325179E+03
 1.9488319E+01  1.8314093E+03
 1.9510427E+01  1.8283888E+03
 1.9532536E+01  1.8267288E+03
 1.9554644E+01  1.8257349E+03
 1.9576752E+01  1.8246980E+03
 1.9598860E+01  1.8239556E+03
 1.9620968E+01  1.8218914E+03
 1.9643076E+01  1.8195863E+03
 1.9665184E+01  1.8183085E+03
 1.9687292E+01  1.8174861E+03
 1.9709400E+01  1.8175518E+03
 1.9731508E+01  1.8169539E+03
 1.9753616E+01  1.8150922E+03
 1.9775724E+01  1.8138304E+03
 1.9797832E+01  1.8133257E+03
 1.9819941E+01  1.8127517E+03
 1.9842049E+01  1.8116775E+03
 1.9864157E+01  1.8116198E+03
 1.9886265E+01  1.8115900E+03
 1.9908373E+01  1.8111644E+03
 1.9930481E+01  1.8111775E+03
 1.9952589E+01  1.8114170E+03
 1.9974697E+01  1.8125309E+03
 1.9996805E+01  1.8138488E+03
 2.0018915E+01  1.8150038E+03
 2.0041023E+01  1.8162825E+03
 2.0063131E+01  1.8177974E+03
 2.0085239E+01  1.8184397E+03
 2.0107347E+01  1.8194147E+03
 2.0129456E+01  1.8208497E+03
 2.0151564E+01  1.8212208E+03
 2.0173672E+01  1.8216980E+03
 2.0195780E+01  1.8202072E+03
 2.0217888E+01  1.8185146E+03
 2.0239996E+01  1.8170901E+03
 2.0262104E+01  1.8156973E+03
 2.0284212E+01  1.8147601E+03
 2.0306320E+01  1.8121444E+03
 2.0328428E+01  1.8091105E+03
 2.0350536E+01  1.8060817E+03
 2.0372644E+01  1.8029077E+03
 2.0394753E+01  1.7986144E+03
 2.0416861E+01  1.7953883E+03
 2.0438969E+01  1.7926344E+03
 2.0461077E+01  1.7900996E+03
 2.0483185E+01  1.7871823E+03
 2.0505293E+01  1.7839362E+03
 2.0527401E+01  1.7812234E+03
 2.0549509E+01  1.7783002E+03
 2.0571617E+01  1.7750822E+03
 2.0593725E+01  1.7712255E+03
 2.0615833E+01  1.7673055E+03
 2.0637941E+01  1.7638751E+03
 2.0660049E+01  1.7608228E+03
 2.0682158E+01  1.7576853E+03
 2.0704266E+01  1.7538275E+03
 2.0726374E+01  1.7510120E+03
 2.0748482E+01  1.7474917E+03
 2.0770590E+01  1.7449413E+03
 2.0792700E+01  1.7433865E+03
 2.0814808E+01  1.7409861E+03
 2.0836916E+01  1.7396183E+03
 2.0859024E+01  1.7374418E+03
 2.0881132E+01  1.7342456E+03
 2.0903240E+01  1.7326809E+03
 2.0925348E+01  1.7310880E+03
 2.0947456E+01  1.7286653E+03
 2.0969564E+01  1.7257273E+03
 2.0991673E+01  1.7247358E+03
 2.1013781E+01  1.7234874E+03
 2.1035889E+01  1.7215757E+03
 2.1057997E+01  1.7201866E+03
 2.1080105E+01  1.7187433E+03
 2.1102213E+01  1.7170983E+03
 2.1124321E+01  1.7152457E+03
 2.1146429E+01  1.7145518E+03
 2.1168537E+01  1.7119994E+03
 2.1190645E+01  1.7069014E+03
 2.1212753E+01  1.7056437E+03
 2.1234861E+01  1.7060996E+03
 2.1256969E+01  1.7039611E+03
 2.1279078E+01  1.7001951E+03
 2.1301186E+01  1.6988069E+03
 2.1323294E+01  1.6953176E+03
 2.1345402E+01  1.6921786E+03
 2.1367510E+01  1.6909503E+03
 2.1389618E+01  1.6896187E+03
 2.1411726E+01  1.6872908E+03
 2.1433834E+01  1.6861930E+03
 2.1455942E+01  1.6844651E+03
 2.1478050E+01  1.6820596E+03
 2.1500158E+01  1.6802494E+03
 2.1522266E+01  1.6784420E+03
 2.1544374E+01  1.6759252E+03
 2.1566484E+01  1.6732291E+03
 2.1588593E+01  1.6709902E+03
 2.1610701E+01  1.6695344E+03
 2.1632809E+01  1.6682780E+03
 2.1654917E+01  1.6657676E+03
 2.1677025E+01  1.6618491E+03
 2.1699133E+01  1.6607783E+03
 2.1721241E+01  1.6591398E+03
 2.1743349E+01  1.6561176E+03
 2.1765457E+01  1.6542185E+03
 2.1787565E+01  1.6536287E+03
 2.1809673E+01  1.6521516E+03
 2.1831781E+01  1.6491626E+03
 2.1853889E+01  1.6474607E+03
 2.1875998E+01  1.6462579E+03
 2.1898106E+01  1.6437882E+03
 2.1920214E+01  1.6431361E+03
 2.1942322E+01  1.6423441E+03
 2.1964430E+01  1.6395905E+03
 2.1986538E+01  1.6384326E+03
 2.2008646E+01  1.6376361E+03
 2.2030754E+01  1.6360554E+03
 2.2052862E+01  1.6333719E+03
 2.2074970E+01  1.6318762E+03
 2.2097078E+01  1.6309301E+03
 2.2119186E+01  1.6296169E+03
 2.2141294E+01  1.6280002E+03
 2.2163403E+01  1.6260847E+03
 2.2185511E+01  1.6235237E+03
 2.2207619E+01  1.6219646E+03
 2.2229727E+01  1.6218239E+03
 2.2251835E+01  1.6200648E+03
 2.2273943E+01  1.6189413E+03
 2.2296051E+01  1.6168756E+03
 2.2318159E+01  1.6154740E+03
 2.2340269E+01  1.6137535E+03
 2.2362377E+01  1.6127371E+03
 2.2384485E+01  1.6124907E+03
 2.2406593E+01  1.6114487E+03
 2.2428701E+01  1.6090996E+03
 2.2450809E+01  1.6082753E+03
 2.2472918E+01  1.6056039E+03
 2.2495026E+01  1.6041610E+03
 2.2517134E+01  1.6035375E+03
 2.2539242E+01  1.6021980E+03
 2.2561350E+01  1.6010349E+03
 2.2583458E+01  1.5994214E+03
 2.2605566E+01  1.5973672E+03
 2.2627674E+01  1.5953462E+03
 2.2649782E+01  1.5943197E+03
 2.2671890E+01  1.5923376E+03
 2.2693998E+01  1.5914213E+03
 2.2716106E+01  1.5908903E+03
 2.2738214E+01  1.5896306E+03
 2.2760323E+01  1.5879156E+03
 2.2782431E+01  1.5860931E+03
 2.2804539E+01  1.5857568E+03
 2.2826647E+01  1.5856208E+03
 2.2848755E+01  1.5826819E+03
 2.2870863E+01  1.5814363E+03
 2.2892971E+01  1.5803953E+03
 2.2915079E+01  1.5786627E+03
 2.2937187E+01  1.5767554E+03
 2.2959295E+01  1.5761710E+03
 2.2981403E+01  1.5725957E+03
 2.3003511E+01  1.5721906E+03
 2.3025620E+01  1.5713982E+03
 2.3047728E+01  1.5688860E+03
 2.3069836E+01  1.5675488E+03
 2.3091946E+01  1.5659447E+03
 2.3114054E+01  1.5626370E+03
 2.3136162E+01  1.5343167E+03
 2.3158270E+01  1.4451610E+03
 2.3180378E+01  1.3607275E+03
 2.3202486E+01  1.3014176E+03
 2.3224594E+01  1.2668876E+03
 2.3246702E+01  1.2335474E+03
 2.3268810E+01  1.1970101E+03
 2.3290918E+01  1.1618717E+03
 2.3313026E+01  1.1527815E+03
 2.3335135E+01  1.1350770E+03
 2.3357243E+01  1.1158918E+03
 2.3379351E+01  1.0961383E+03
 2.3401459E+01  1.0801869E+03
 2.3423567E+01  1.0611865E+03
 2.3445675E+01  1.0441688E+03
 2.3467783E+01  1.0291747E+03
 2.3489891E+01  1.0150906E+03
 2.3511999E+01  1.0032783E+03
 2.3534107E+01  1.0031838E+03
 2.3556215E+01  9.9719580E+02
 2.3578323E+01  9.9264825E+02
 2.3600431E+01  9.8549017E+02
 2.3622540E+01  9.8004388E+02
 2.3644648E+01  9.7123474E+02
 2.3666756E+01  9.6510907E+02
 2.3688864E+01  9.5751160E+02
 2.3710972E+01  9.5194537E+02
 2.3733080E+01  9.4624768E+02
 2.3755188E+01  9.4197925E+02
 2.3777296E+01  9.3833710E+02
 2.3799404E+01  9.3766205E+02
 2.3821512E+01  9.3697894E+02
 2.3843620E+01  9.3538800E+02
 2.3865730E+01  9.3508740E+02
 2.3887838E+01  9.3332385E+02
 2.3909946E+01  9.3448712E+02
 2.3932055E+01  9.3384033E+02
 2.3954163E+01  9.3342712E+02
 2.3976271E+01  9.3260394E+02
 2.3998379E+01  9.3214642E+02
 2.4020487E+01  9.2988837E+02
 2.4042595E+01  9.2869507E+02
 2.4064703E+01  9.2406946E+02
 2.4086811E+01  9.2273138E+02
 2.4108919E+01  9.1753687E+02
 2.4131027E+01  9.1153741E+02
 2.4153135E+01  9.0578198E+02
 2.4175243E+01  8.9535529E+02
 2.4197351E+01  8.8525397E+02
 2.4219460E+01  8.7555133E+02
 2.4241568E+01  8.6265753E+02
 2.4263676E+01  8.5103333E+02
 2.4285784E+01  8.3938367E+02
 2.4307892E+01  8.2554645E+02
 2.4330000E+01  8.1139575E+02
 2.4352108E+01  7.9625507E+02
 2.4374216E+01  7.7945233E+02
 2.4396324E+01  7.6165179E+02
 2.4418432E+01  7.4245642E+02
 2.4440540E+01  7.3188531E+02
 2.4462648E+01  7.1349500E+02
 2.4484756E+01  6.9066779E+02
 2.4506865E+01  6.7033698E+02
 2.4528973E+01  6.4015094E+02
 2.4551081E+01  6.1779822E+02
 2.4573189E+01  5.7690131E+02
 2.4595297E+01  5.3925183E+02
 2.4617405E+01  4.9397665E+02
 2.4639515E+01  4.6316113E+02
 2.4661623E+01  4.2649445E+02
 2.4683731E+01  3.7852567E+02
 2.4705839E+01  3.1891141E+02
 2.4727947E+01  2.4361734E+02
 2.4750055E+01  1.2217464E+02
 2.4772163E+01  2.1143518E+01
 2.4794271E+01  3.3794351E-02
 2.4816380E+01  0.0000000E+00
 2.4838488E+01  0.0000000E+00
 2.4860596E+01  0.0000000E+00
 2.4882704E+01  0.0000000E+00
 2.4904812E+01  0.0000000E+00
 2.4926920E+01  0.0000000E+00
 2.4949028E+01  0.0000000E+00
 2.4971136E+01  0.0000000E+00
 2.4993244E+01  0.0000000E+00
 2.5015352E+01  0.0000000E+00
 2.5037460E+01  0.0000000E+00
 2.5059568E+01  0.0000000E+00
 2.5081676E+01  0.0000000E+00
 2.5103785E+01  0.0000000E+00
 2.5125893E+01  0.0000000E+00
 2.5148001E+01  0.0000000E+00
 2.5170109E+01  0.0000000E+00
 2.5192217E+01  0.0000000E+00
 2.5214325E+01  0.0000000E+00
 2.5236433E+01  0.0000000E+00
 2.5258541E+01  0.0000000E+00
 2.5280649E+01  0.0000000E+00
 2.5302757E+01  0.0000000E+00
 2.5324865E+01  0.0000000E+00
 2.5346973E+01  0.0000000E+00
 2.5369081E+01  0.0000000E+00
 2.5391190E+01  0.0000000E+00
 2.5413300E+01  0.0000000E+00
 2.5435408E+01  0.0000000E+00
 2.5457516E+01  0.0000000E+00
 2.5479624E+01  0.0000000E+00
 2.5501732E+01  0.0000000E+00
 2.5523840E+01  0.0000000E+00
 2.5545948E+01  0.0000000E+00
 2.5568056E+01  0.0000000E+00
 2.5590164E+01  0.0000000E+00
 2.5612272E+01  0.0000000E+00
 2.5634380E+01  0.0000000E+00
 2.5656488E+01  0.0000000E+00
 2.5678596E+01  0.0000000E+00
 2.5700705E+01  0.0000000E+00
 2.5722813E+01  0.0000000E+00
 2.5744921E+01  0.0000000E+00
 2.5767029E+01  0.0000000E+00
 2.5789137E+01  0.0000000E+00
 2.5811245E+01  0.0000000E+00
 2.5833353E+01  0.0000000E+00
 2.5855461E+01  0.0000000E+00
 2.5877569E+01  0.0000000E+00
 2.5899677E+01  0.0000000E+00
 2.5921785E+01  0.0000000E+00
 2.5943893E+01  0.0000000E+00
 2.5966002E+01  0.0000000E+00
 2.5988110E+01  0.0000000E+00
 2.6010218E+01  0.0000000E+00
 2.6032326E+01  0.0000000E+00
 2.6054434E+01  0.0000000E+00
 2.6076542E+01  0.0000000E+00
 2.6098650E+01  0.0000000E+00
 2.6120758E+01  0.0000000E+00
 2.6142866E+01  0.0000000E+00
 2.6164974E+01  0.0000000E+00
 2.6187084E+01  0.0000000E+00
 2.6209192E+01  0.0000000E+00
 2.6231300E+01  0.0000000E+00
 2.6253408E+01  0.0000000E+00
 2.6275517E+01  0.0000000E+00
 2.6297625E+01  0.0000000E+00
 2.6319733E+01  0.0000000E+00
 2.6341841E+01  0.0000000E+00
 2.6363949E+01  0.0000000E+00
 2.6386057E+01  0.0000000E+00
 2.6408165E+01  0.0000000E+00
 2.6430273E+01  0.0000000E+00
 2.6452381E+01  0.0000000E+00
 2.6474489E+01  0.0000000E+00
 2.6496597E+01  0.0000000E+00
 2.6518705E+01  0.0000000E+00
 2.6540813E+01  0.0000000E+00
 2.6562922E+01  0.0000000E+00
 2.6585030E+01  0.0000000E+00
 2.6607138E+01  0.0000000E+00
 2.6629246E+01  0.0000000E+00
 2.6651354E+01  0.0000000E+00
 2.6673462E+01  0.0000000E+00
 2.6695570E+01  0.0000000E+00
 2.6717678E+01  0.0000000E+00
 2.6739786E+01  0.0000000E+00
 2.6761894E+01  0.0000000E+00
 2.6784002E+01  0.0000000E+00
 2.6806110E+01  0.0000000E+00
 2.6828218E+01  0.0000000E+00
 2.6850327E+01  0.0000000E+00
 2.6872435E+01  0.0000000E+00
 2.6894543E+01  0.0000000E+00
 2.6916651E+01  0.0000000E+00
 2.6938761E+01  0.0000000E+00
 2.6960869E+01  0.0000000E+00
 2.6982977E+01  0.0000000E+00
 2.7005085E+01  0.0000000E+00
 2.7027193E+01  0.0000000E+00
 2.7049301E+01  0.0000000E+00
 2.7071409E+01  0.0000000E+00
 2.7093517E+01  0.0000000E+00
 2.7115625E+01  0.0000000E+00
 2.7137733E+01  0.0000000E+00
 2.7159842E+01  0.0000000E+00
 2.7181950E+01  0.0000000E+00
 2.7204058E+01  0.0000000E+00
 2.7226166E+01  0.0000000E+00
 2.7248274E+01  0.0000000E+00
 2.7270382E+01  0.0000000E+00
 2.7292490E+01  0.0000000E+00
 2.7314598E+01  0.0000000E+00
 2.7336706E+01  0.0000000E+00
 2.7358814E+01  0.0000000E+00
 2.7380922E+01  0.0000000E+00
 2.7403030E+01  0.0000000E+00
 2.7425138E+01  0.0000000E+00
 2.7447247E+01  0.0000000E+00
 2.7469355E+01  0.0000000E+00
 2.7491463E+01  0.0000000E+00
 2.7513571E+01  0.0000000E+00
 2.7535679E+01  0.0000000E+00
 2.7557787E+01  0.0000000E+00
 2.7579895E+01  0.0000000E+00
 2.7602003E+01  0.0000000E+00
 2.7624111E+01  0.0000000E+00
 2.7646219E+01  0.0000000E+00
 2.7668327E+01  0.0000000E+00
 2.7690435E+01  0.0000000E+00
 2.7712545E+01  0.0000000E+00
 2.7734653E+01  0.0000000E+00
 2.7756762E+01  0.0000000E+00
 2.7778870E+01  0.0000000E+00
 2.7800978E+01  0.0000000E+00
 2.7823086E+01  0.0000000E+00
 2.7845194E+01  0.0000000E+00
 2.7867302E+01  0.0000000E+00
 2.7889410E+01  0.0000000E+00
 2.7911518E+01  0.0000000E+00
 2.7933626E+01  0.0000000E+00
 2.7955734E+01  0.0000000E+00
 2.7977842E+01  0.0000000E+00
 2.7999950E+01  0.0000000E+00
 2.8022058E+01  0.0000000E+00
 2.8044167E+01  0.0000000E+00
 2.8066275E+01  0.0000000E+00
 2.8088383E+01  0.0000000E+00
 2.8110491E+01  0.0000000E+00
 2.8132599E+01  0.0000000E+00
 2.8154707E+01  0.0000000E+00
 2.8176815E+01  0.0000000E+00
 2.8198923E+01  0.0000000E+00
 2.8221031E+01  0.0000000E+00
 2.8243139E+01  0.0000000E+00
 2.8265247E+01  0.0000000E+00
 2.8287355E+01  0.0000000E+00
 2.8309464E+01  0.0000000E+00
 2.8331572E+01  0.0000000E+00
 2.8353680E+01  0.0000000E+00
 2.8375788E+01  0.0000000E+00
 2.8397896E+01  0.0000000E+00
 2.8420004E+01  0.0000000E+00
 2.8442112E+01  0.0000000E+00
 2.8464220E+01  0.0000000E+00
 2.8486330E+01  0.0000000E+00
 2.8508438E+01  0.0000000E+00
 2.8530546E+01  0.0000000E+00
 2.8552654E+01  0.0000000E+00
 2.8574762E+01  0.0000000E+00
 2.8596870E+01  0.0000000E+00
 2.8618979E+01  0.0000000E+00
 2.8641087E+01  0.0000000E+00
 2.8663195E+01  0.0000000E+00
 2.8685303E+01  0.0000000E+00
 2.8707411E+01  0.0000000E+00
 2.8729519E+01  0.0000000E+00
 2.8751627E+01  0.0000000E+00
 2.8773735E+01  0.0000000E+00
 2.8795843E+01  0.0000000E+00
 2.8817951E+01  0.0000000E+00
 2.8840059E+01  0.0000000E+00
 2.8862167E+01  0.0000000E+00
 2.8884275E+01  0.0000000E+00
 2.8906384E+01  0.0000000E+00
 2.8928492E+01  0.0000000E+00
 2.8950600E+01  0.0000000E+00
 2.8972708E+01  0.0000000E+00
 2.8994816E+01  0.0000000E+00
 2.9016924E+01  0.0000000E+00
 2.9039032E+01  0.0000000E+00
 2.9061140E+01  0.0000000E+00
 2.9083248E+01  0.0000000E+00
 2.9105356E+01  0.0000000E+00
 2.9127464E+01  0.0000000E+00
 2.9149572E+01  0.0000000E+00
 2.9171680E+01  0.0000000E+00
 2.9193789E+01  0.0000000E+00
 2.9215897E+01  0.0000000E+00
 2.9238005E+01  0.0000000E+00
 2.9260115E+01  0.0000000E+00
 2.9282223E+01  0.0000000E+00
 2.9304331E+01  0.0000000E+00
 2.9326439E+01  0.0000000E+00
 2.9348547E+01  0.0000000E+00
 2.9370655E+01  0.0000000E+00
 2.9392763E+01  0.0000000E+00
 2.9414871E+01  0.0000000E+00
 2.9436979E+01  0.0000000E+00
 2.9459087E+01  0.0000000E+00
 2.9481195E+01  0.0000000E+00
 2.9503304E+01  0.0000000E+00
 2.9525412E+01  0.0000000E+00
 2.9547520E+01  0.0000000E+00
 2.9569628E+01  0.0000000E+00
 2.9591736E+01  0.0000000E+00
 2.9613844E+01  0.0000000E+00
 2.9635952E+01  0.0000000E+00
 2.9658060E+01  0.0000000E+00
 2.9680168E+01  0.0000000E+00
 2.9702276E+01  0.0000000E+00
 2.9724384E+01  0.0000000E+00
 2.9746492E+01  0.0000000E+00
 2.9768600E+01  0.0000000E+00
 2.9790709E+01  0.0000000E+00
 2.9812817E+01  0.0000000E+00
 2.9834925E+01  0.0000000E+00
 2.9857033E+01  0.0000000E+00
 2.9879141E+01  0.0000000E+00
 2.9901249E+01  0.0000000E+00
 2.9923357E+01  0.0000000E+00
 2.9945465E+01  0.0000000E+00
 2.9967573E+01  0.0000000E+00
 2.9989681E+01  0.0000000E+00
 3.0011789E+01  0.0000000E+00
 3.0033899E+01  0.0000000E+00
 3.0056007E+01  0.0000000E+00
 3.0078115E+01  0.0000000E+00
 3.0100224E+01  0.0000000E+00
 3.0122332E+01  0.0000000E+00
 3.0144440E+01  0.0000000E+00
 3.0166548E+01  0.0000000E+00
 3.0188656E+01  0.0000000E+00
 3.0210764E+01  0.0000000E+00
 3.0232872E+01  0.0000000E+00
 3.0254980E+01  0.0000000E+00
 3.0277088E+01  0.0000000E+00
 3.0299196E+01  0.0000000E+00
 3.0321304E+01  0.0000000E+00
 3.0343412E+01  0.0000000E+00
 3.0365520E+01  0.0000000E+00
 3.0387629E+01  0.0000000E+00
 3.0409737E+01  0.0000000E+00
 3.0431845E+01  0.0000000E+00
 3.0453953E+01  0.0000000E+00
 3.0476061E+01  0.0000000E+00
 3.0498169E+01  0.0000000E+00
 3.0520277E+01  0.0000000E+00
 3.0542385E+01  0.0000000E+00
 3.0564493E+01  0.0000000E+00
 3.0586601E+01  0.0000000E+00
 3.0608709E+01  0.0000000E+00
 3.0630817E+01  0.0000000E+00
 3.0652925E+01  0.0000000E+00
 3.0675034E+01  0.0000000E+00
 3.0697142E+01  0.0000000E+00
 3.0719250E+01  0.0000000E+00
 3.0741358E+01  0.0000000E+00
 3.0763466E+01  0.0000000E+00
 3.0785574E+01  0.0000000E+00
 3.0807684E+01  0.0000000E+00
 3.0829792E+01  0.0000000E+00
 3.0851900E+01  0.0000000E+00
 3.0874008E+01  0.0000000E+00
 3.0896116E+01  0.0000000E+00
 3.0918224E+01  0.0000000E+00
 3.0940332E+01  0.0000000E+00
 3.0962440E+01  0.0000000E+00
 3.0984549E+01  0.0000000E+00
 3.1006657E+01  0.0000000E+00
 3.1028765E+01  0.0000000E+00
 3.1050873E+01  0.0000000E+00
 3.1072981E+01  0.0000000E+00
 3.1095089E+01  0.0000000E+00
 3.1117197E+01  0.0000000E+00
 3.1139305E+01  0.0000000E+00
 3.1161413E+01  0.0000000E+00
 3.1183521E+01  0.0000000E+00
 3.1205629E+01  0.0000000E+00
 3.1227737E+01  0.0000000E+00
 3.1249846E+01  0.0000000E+00
 3.1271954E+01  0.0000000E+00
 3.1294062E+01  0.0000000E+00
 3.1316170E+01  0.0000000E+00
 3.1338278E+01  0.0000000E+00
 3.1360386E+01  0.0000000E+00
 3.1382494E+01  0.0000000E+00
 3.1404602E+01  0.0000000E+00
 3.1426710E+01  0.0000000E+00
 3.1448818E+01  0.0000000E+00
 3.1470926E+01  0.0000000E+00
 3.1493034E+01  0.0000000E+00
 3.1515142E+01  0.0000000E+00
 3.1537251E+01  0.0000000E+00
 3.1559361E+01  0.0000000E+00
 3.1581469E+01  0.0000000E+00
 3.1603577E+01  0.0000000E+00
 3.1625685E+01  0.0000000E+00
 3.1647793E+01  0.0000000E+00
 3.1669901E+01  0.0000000E+00
 3.1692009E+01  0.0000000E+00
 3.1714117E+01  0.0000000E+00
 3.1736225E+01  0.0000000E+00
 3.1758333E+01  0.0000000E+00
 3.1780441E+01  0.0000000E+00
 3.1802549E+01  0.0000000E+00
 3.1824657E+01  0.0000000E+00
 3.1846766E+01  0.0000000E+00
 3.1868874E+01  0.0000000E+00
 3.1890982E+01  0.0000000E+00
 3.1913090E+01  0.0000000E+00
 3.1935198E+01  0.0000000E+00
 3.1957306E+01  0.0000000E+00
 3.1979414E+01  0.0000000E+00
 3.2001522E+01  0.0000000E+00
 3.2023632E+01  0.0000000E+00
 3.2045738E+01  0.0000000E+00
 3.2067848E+01  0.0000000E+00
 3.2089954E+01  0.0000000E+00
 3.2112064E+01  0.0000000E+00
 3.2134171E+01  0.0000000E+00
 3.2156281E+01  0.0000000E+00
 3.2178387E+01  0.0000000E+00
 3.2200497E+01  0.0000000E+00
 3.2222603E+01  0.0000000E+00
 3.2244713E+01  0.0000000E+00
 3.2266819E+01  0.0000000E+00
 3.2288929E+01  0.0000000E+00
 3.2311035E+01  0.0000000E+00
 3.2333145E+01  0.0000000E+00
 3.2355251E+01  0.0000000E+00
 3.2377361E+01  0.0000000E+00
 3.2399467E+01  0.0000000E+00
 3.2421577E+01  0.0000000E+00
 3.2443684E+01  0.0000000E+00
 3.2465794E+01  0.0000000E+00
 3.2487900E+01  0.0000000E+00
 3.2510010E+01  0.0000000E+00
 3.2532116E+01  0.0000000E+00
 3.2554226E+01  0.0000000E+00
 3.2576332E+01  0.0000000E+00
 3.2598442E+01  0.0000000E+00
 3.2620548E+01  0.0000000E+00
 3.2642658E+01  0.0000000E+00
 3.2664764E+01  0.0000000E+00
 3.2686874E+01  0.0000000E+00
 3.2708981E+01  0.0000000E+00
 3.2731091E+01  0.0000000E+00
