D:\DATA\UserData\CuiTian20190403\CWH\BA\BA_14.tif: 2-theta Scan
2-Theta Angle (Degrees)
Intensity
       1481
 1.1054066E-02  4.1325024E+01
 3.3162199E-02  4.0511513E+01
 5.5270333E-02  4.2557682E+01
 7.7378467E-02  4.2819843E+01
 9.9486597E-02  4.1950214E+01
 1.2159473E-01  4.0438011E+01
 1.4370286E-01  3.9462440E+01
 1.6581100E-01  3.9327465E+01
 1.8791912E-01  3.9494362E+01
 2.1002726E-01  3.9748695E+01
 2.3213540E-01  4.0082069E+01
 2.5424352E-01  4.0647778E+01
 2.7635166E-01  4.0077763E+01
 2.9845980E-01  3.9948681E+01
 3.2056794E-01  3.9852844E+01
 3.4267604E-01  4.0028690E+01
 3.6478418E-01  4.0606655E+01
 3.8689232E-01  4.0419304E+01
 4.0900046E-01  4.0179596E+01
 4.3110859E-01  4.0258602E+01
 4.5321673E-01  3.9644569E+01
 4.7532487E-01  3.9388664E+01
 4.9743298E-01  3.9821724E+01
 5.1954114E-01  4.0134007E+01
 5.4164928E-01  3.9528805E+01
 5.6375736E-01  3.9022579E+01
 5.8586550E-01  3.8883049E+01
 6.0797364E-01  3.9306561E+01
 6.3008177E-01  4.0173065E+01
 6.5218991E-01  3.9913822E+01
 6.7429805E-01  3.9258041E+01
 6.9640619E-01  3.9495888E+01
 7.1851432E-01  3.9608727E+01
 7.4062246E-01  3.9612476E+01
 7.6273060E-01  3.9064331E+01
 7.8483874E-01  3.8861614E+01
 8.0694687E-01  3.9446659E+01
 8.2905495E-01  4.0198246E+01
 8.5116309E-01  4.0265305E+01
 8.7327123E-01  4.0427361E+01
 8.9537936E-01  4.0636707E+01
 9.1748750E-01  4.0990479E+01
 9.3959564E-01  4.1286400E+01
 9.6170378E-01  4.0883503E+01
 9.8381191E-01  4.0481041E+01
 1.0059201E+00  3.9763680E+01
 1.0280281E+00  3.9679966E+01
 1.0501363E+00  4.0543148E+01
 1.0722444E+00  4.0908627E+01
 1.0943526E+00  4.0895210E+01
 1.1164607E+00  4.1097179E+01
 1.1385689E+00  4.0940708E+01
 1.1606770E+00  4.0586327E+01
 1.1827852E+00  4.0447918E+01
 1.2048932E+00  4.0628334E+01
 1.2270014E+00  4.0961533E+01
 1.2491095E+00  4.1012550E+01
 1.2712176E+00  4.1100143E+01
 1.2933258E+00  4.1070618E+01
 1.3154339E+00  4.1389355E+01
 1.3375421E+00  4.1738575E+01
 1.3596501E+00  4.2153862E+01
 1.3817583E+00  4.2352661E+01
 1.4038664E+00  4.2576035E+01
 1.4259746E+00  4.3023239E+01
 1.4480827E+00  4.3056801E+01
 1.4701909E+00  4.2912479E+01
 1.4922990E+00  4.2634769E+01
 1.5144070E+00  4.2912895E+01
 1.5365152E+00  4.2775547E+01
 1.5586233E+00  4.2782192E+01
 1.5807315E+00  4.3229652E+01
 1.6028396E+00  4.3479813E+01
 1.6249478E+00  4.3777248E+01
 1.6470559E+00  4.4340870E+01
 1.6691641E+00  4.4439384E+01
 1.6912721E+00  4.4532356E+01
 1.7133803E+00  4.5051712E+01
 1.7354884E+00  4.5779110E+01
 1.7575966E+00  4.6303921E+01
 1.7797047E+00  4.6798962E+01
 1.8018128E+00  4.7338638E+01
 1.8239210E+00  4.8334030E+01
 1.8460290E+00  5.0181431E+01
 1.8681372E+00  5.3581528E+01
 1.8902453E+00  6.1712181E+01
 1.9123535E+00  7.9430450E+01
 1.9344616E+00  1.0824670E+02
 1.9565698E+00  1.4258360E+02
 1.9786779E+00  1.7831181E+02
 2.0007861E+00  2.1350188E+02
 2.0228941E+00  2.4710216E+02
 2.0450022E+00  2.8006113E+02
 2.0671103E+00  3.1320471E+02
 2.0892186E+00  3.5094870E+02
 2.1113267E+00  3.9158615E+02
 2.1334348E+00  4.3830530E+02
 2.1555429E+00  4.9084958E+02
 2.1776512E+00  5.4194202E+02
 2.1997592E+00  5.8189038E+02
 2.2218673E+00  6.1614587E+02
 2.2439754E+00  6.4705896E+02
 2.2660837E+00  6.7631860E+02
 2.2881918E+00  7.0284674E+02
 2.3102999E+00  7.2530627E+02
 2.3324080E+00  7.4762537E+02
 2.3545160E+00  7.7114111E+02
 2.3766243E+00  7.9524786E+02
 2.3987324E+00  8.1842535E+02
 2.4208405E+00  8.4007672E+02
 2.4429486E+00  8.6312897E+02
 2.4650569E+00  8.8543976E+02
 2.4871650E+00  9.0826672E+02
 2.5092731E+00  9.2762018E+02
 2.5313811E+00  9.4786957E+02
 2.5534894E+00  9.6684198E+02
 2.5755975E+00  9.8179541E+02
 2.5977056E+00  9.9840613E+02
 2.6198137E+00  1.0164697E+03
 2.6419218E+00  1.0322897E+03
 2.6640301E+00  1.0474960E+03
 2.6861382E+00  1.0644888E+03
 2.7082462E+00  1.0808527E+03
 2.7303543E+00  1.0994407E+03
 2.7524626E+00  1.1145397E+03
 2.7745707E+00  1.1276268E+03
 2.7966788E+00  1.1417346E+03
 2.8187869E+00  1.1594480E+03
 2.8408952E+00  1.1752255E+03
 2.8630033E+00  1.1863625E+03
 2.8851113E+00  1.1971604E+03
 2.9072194E+00  1.2110457E+03
 2.9293275E+00  1.2252456E+03
 2.9514358E+00  1.2384385E+03
 2.9735439E+00  1.2498239E+03
 2.9956520E+00  1.2601923E+03
 3.0177600E+00  1.2708882E+03
 3.0398684E+00  1.2817185E+03
 3.0619764E+00  1.2932065E+03
 3.0840845E+00  1.3012440E+03
 3.1061926E+00  1.3141860E+03
 3.1283009E+00  1.3284100E+03
 3.1504090E+00  1.3395818E+03
 3.1725171E+00  1.3480699E+03
 3.1946251E+00  1.3571764E+03
 3.2167332E+00  1.3658787E+03
 3.2388415E+00  1.3741293E+03
 3.2609496E+00  1.3818716E+03
 3.2830577E+00  1.3857269E+03
 3.3051658E+00  1.3938049E+03
 3.3272741E+00  1.4004084E+03
 3.3493822E+00  1.4062958E+03
 3.3714902E+00  1.4143152E+03
 3.3935983E+00  1.4251476E+03
 3.4157066E+00  1.4336357E+03
 3.4378147E+00  1.4411748E+03
 3.4599228E+00  1.4492554E+03
 3.4820309E+00  1.4562189E+03
 3.5041389E+00  1.4626602E+03
 3.5262473E+00  1.4684822E+03
 3.5483553E+00  1.4770715E+03
 3.5704634E+00  1.4853318E+03
 3.5925715E+00  1.4922754E+03
 3.6146798E+00  1.4955275E+03
 3.6367879E+00  1.5016007E+03
 3.6588960E+00  1.5081204E+03
 3.6810040E+00  1.5129270E+03
 3.7031121E+00  1.5170087E+03
 3.7252204E+00  1.5209868E+03
 3.7473285E+00  1.5248362E+03
 3.7694366E+00  1.5290228E+03
 3.7915447E+00  1.5349563E+03
 3.8136530E+00  1.5411868E+03
 3.8357611E+00  1.5471740E+03
 3.8578691E+00  1.5510803E+03
 3.8799772E+00  1.5552593E+03
 3.9020855E+00  1.5584603E+03
 3.9241936E+00  1.5624819E+03
 3.9463017E+00  1.5667874E+03
 3.9684098E+00  1.5712180E+03
 3.9905179E+00  1.5745735E+03
 4.0126262E+00  1.5775890E+03
 4.0347342E+00  1.5823430E+03
 4.0568423E+00  1.5869706E+03
 4.0789504E+00  1.5881287E+03
 4.1010585E+00  1.5901198E+03
 4.1231666E+00  1.5931412E+03
 4.1452751E+00  1.5963837E+03
 4.1673832E+00  1.6004596E+03
 4.1894913E+00  1.6051017E+03
 4.2115993E+00  1.6056024E+03
 4.2337074E+00  1.6049435E+03
 4.2558155E+00  1.6062792E+03
 4.2779236E+00  1.6084781E+03
 4.3000317E+00  1.6115786E+03
 4.3221397E+00  1.6153512E+03
 4.3442483E+00  1.6178958E+03
 4.3663564E+00  1.6206876E+03
 4.3884645E+00  1.6241445E+03
 4.4105725E+00  1.6254913E+03
 4.4326806E+00  1.6239458E+03
 4.4547887E+00  1.6253644E+03
 4.4768968E+00  1.6276764E+03
 4.4990048E+00  1.6306355E+03
 4.5211129E+00  1.6314388E+03
 4.5432215E+00  1.6319661E+03
 4.5653296E+00  1.6351610E+03
 4.5874376E+00  1.6359510E+03
 4.6095457E+00  1.6360353E+03
 4.6316538E+00  1.6346177E+03
 4.6537619E+00  1.6354728E+03
 4.6758699E+00  1.6363326E+03
 4.6979780E+00  1.6381299E+03
 4.7200866E+00  1.6387031E+03
 4.7421947E+00  1.6384812E+03
 4.7643027E+00  1.6417893E+03
 4.7864108E+00  1.6420172E+03
 4.8085189E+00  1.6416869E+03
 4.8306270E+00  1.6425305E+03
 4.8527350E+00  1.6412382E+03
 4.8748431E+00  1.6410757E+03
 4.8969512E+00  1.6428444E+03
 4.9190598E+00  1.6455101E+03
 4.9411678E+00  1.6445146E+03
 4.9632759E+00  1.6426643E+03
 4.9853840E+00  1.6435927E+03
 5.0074921E+00  1.6431040E+03
 5.0296001E+00  1.6441635E+03
 5.0517082E+00  1.6450742E+03
 5.0738163E+00  1.6458420E+03
 5.0959244E+00  1.6446373E+03
 5.1180329E+00  1.6448342E+03
 5.1401410E+00  1.6482076E+03
 5.1622491E+00  1.6471460E+03
 5.1843572E+00  1.6475261E+03
 5.2064652E+00  1.6474757E+03
 5.2285733E+00  1.6455641E+03
 5.2506814E+00  1.6435953E+03
 5.2727895E+00  1.6413008E+03
 5.2948980E+00  1.6418302E+03
 5.3170061E+00  1.6421361E+03
 5.3391142E+00  1.6424082E+03
 5.3612223E+00  1.6437262E+03
 5.3833303E+00  1.6459391E+03
 5.4054384E+00  1.6452234E+03
 5.4275465E+00  1.6443207E+03
 5.4496546E+00  1.6427279E+03
 5.4717627E+00  1.6414658E+03
 5.4938712E+00  1.6409655E+03
 5.5159793E+00  1.6410930E+03
 5.5380874E+00  1.6407213E+03
 5.5601954E+00  1.6401877E+03
 5.5823035E+00  1.6400171E+03
 5.6044116E+00  1.6382813E+03
 5.6265197E+00  1.6371727E+03
 5.6486278E+00  1.6366129E+03
 5.6707358E+00  1.6354143E+03
 5.6928444E+00  1.6363174E+03
 5.7149525E+00  1.6374075E+03
 5.7370605E+00  1.6385912E+03
 5.7591686E+00  1.6372198E+03
 5.7812767E+00  1.6362363E+03
 5.8033848E+00  1.6350197E+03
 5.8254929E+00  1.6326667E+03
 5.8476009E+00  1.6336333E+03
 5.8697095E+00  1.6330366E+03
 5.8918176E+00  1.6327185E+03
 5.9139256E+00  1.6332893E+03
 5.9360337E+00  1.6318619E+03
 5.9581418E+00  1.6312898E+03
 5.9802499E+00  1.6304268E+03
 6.0023580E+00  1.6305781E+03
 6.0244660E+00  1.6309291E+03
 6.0465741E+00  1.6313643E+03
 6.0686827E+00  1.6293146E+03
 6.0907907E+00  1.6248275E+03
 6.1128988E+00  1.6224692E+03
 6.1350069E+00  1.6245824E+03
 6.1571150E+00  1.6256736E+03
 6.1792231E+00  1.6250796E+03
 6.2013311E+00  1.6233992E+03
 6.2234392E+00  1.6226483E+03
 6.2455473E+00  1.6227809E+03
 6.2676558E+00  1.6231511E+03
 6.2897639E+00  1.6259923E+03
 6.3118720E+00  1.6240631E+03
 6.3339801E+00  1.6216243E+03
 6.3560882E+00  1.6207020E+03
 6.3781962E+00  1.6186580E+03
 6.4003043E+00  1.6174203E+03
 6.4224124E+00  1.6177843E+03
 6.4445205E+00  1.6172435E+03
 6.4666290E+00  1.6164103E+03
 6.4887371E+00  1.6174335E+03
 6.5108452E+00  1.6184390E+03
 6.5329533E+00  1.6173691E+03
 6.5550613E+00  1.6154166E+03
 6.5771694E+00  1.6143590E+03
 6.5992775E+00  1.6145647E+03
 6.6213856E+00  1.6151962E+03
 6.6434941E+00  1.6141688E+03
 6.6656022E+00  1.6119463E+03
 6.6877103E+00  1.6105427E+03
 6.7098184E+00  1.6092263E+03
 6.7319264E+00  1.6093694E+03
 6.7540345E+00  1.6094558E+03
 6.7761426E+00  1.6085016E+03
 6.7982507E+00  1.6078862E+03
 6.8203588E+00  1.6073448E+03
 6.8424673E+00  1.6068834E+03
 6.8645754E+00  1.6054274E+03
 6.8866835E+00  1.6043506E+03
 6.9087915E+00  1.6056322E+03
 6.9308996E+00  1.6045842E+03
 6.9530077E+00  1.6032356E+03
 6.9751158E+00  1.6052249E+03
 6.9972239E+00  1.6052181E+03
 7.0193319E+00  1.6047274E+03
 7.0414405E+00  1.6028782E+03
 7.0635486E+00  1.6009838E+03
 7.0856566E+00  1.6011001E+03
 7.1077647E+00  1.6008649E+03
 7.1298728E+00  1.5994006E+03
 7.1519809E+00  1.5978348E+03
 7.1740890E+00  1.5973181E+03
 7.1961970E+00  1.5984181E+03
 7.2183056E+00  1.5980784E+03
 7.2404137E+00  1.5967671E+03
 7.2625217E+00  1.5967404E+03
 7.2846298E+00  1.5953619E+03
 7.3067379E+00  1.5934448E+03
 7.3288460E+00  1.5930862E+03
 7.3509541E+00  1.5919714E+03
 7.3730621E+00  1.5916863E+03
 7.3951702E+00  1.5918042E+03
 7.4172788E+00  1.5907140E+03
 7.4393868E+00  1.5898882E+03
 7.4614949E+00  1.5878701E+03
 7.4836030E+00  1.5876798E+03
 7.5057111E+00  1.5885095E+03
 7.5278192E+00  1.5892938E+03
 7.5499272E+00  1.5898385E+03
 7.5720353E+00  1.5885447E+03
 7.5941434E+00  1.5874133E+03
 7.6162519E+00  1.5862799E+03
 7.6383600E+00  1.5847400E+03
 7.6604681E+00  1.5847885E+03
 7.6825762E+00  1.5859796E+03
 7.7046843E+00  1.5851564E+03
 7.7267923E+00  1.5842190E+03
 7.7489004E+00  1.5829642E+03
 7.7710085E+00  1.5825800E+03
 7.7931170E+00  1.5836746E+03
 7.8152251E+00  1.5836564E+03
 7.8373332E+00  1.5819558E+03
 7.8594413E+00  1.5812611E+03
 7.8815494E+00  1.5813442E+03
 7.9036574E+00  1.5822222E+03
 7.9257655E+00  1.5826914E+03
 7.9478736E+00  1.5823557E+03
 7.9699817E+00  1.5834146E+03
 7.9920902E+00  1.5818396E+03
 8.0141983E+00  1.5797416E+03
 8.0363064E+00  1.5780791E+03
 8.0584145E+00  1.5787279E+03
 8.0805225E+00  1.5794244E+03
 8.1026306E+00  1.5806476E+03
 8.1247387E+00  1.5806659E+03
 8.1468468E+00  1.5799280E+03
 8.1689548E+00  1.5817117E+03
 8.1910629E+00  1.5827550E+03
 8.2131710E+00  1.5818663E+03
 8.2352791E+00  1.5816439E+03
 8.2573872E+00  1.5821327E+03
 8.2794962E+00  1.5828070E+03
 8.3016043E+00  1.5849196E+03
 8.3237123E+00  1.5891106E+03
 8.3458204E+00  1.5933438E+03
 8.3679285E+00  1.5967100E+03
 8.3900366E+00  1.6008324E+03
 8.4121447E+00  1.6014658E+03
 8.4342527E+00  1.5990159E+03
 8.4563608E+00  1.5979437E+03
 8.4784689E+00  1.5965005E+03
 8.5005770E+00  1.5930281E+03
 8.5226851E+00  1.5894161E+03
 8.5447931E+00  1.5858295E+03
 8.5669012E+00  1.5837767E+03
 8.5890093E+00  1.5833135E+03
 8.6111174E+00  1.5821989E+03
 8.6332254E+00  1.5803826E+03
 8.6553335E+00  1.5801985E+03
 8.6774426E+00  1.5817439E+03
 8.6995506E+00  1.5839532E+03
 8.7216587E+00  1.5855513E+03
 8.7437668E+00  1.5885094E+03
 8.7658749E+00  1.5898334E+03
 8.7879829E+00  1.5902980E+03
 8.8100910E+00  1.5915422E+03
 8.8321991E+00  1.5933018E+03
 8.8543072E+00  1.5961355E+03
 8.8764153E+00  1.6011191E+03
 8.8985233E+00  1.6070046E+03
 8.9206314E+00  1.6132024E+03
 8.9427395E+00  1.6164452E+03
 8.9648476E+00  1.6147416E+03
 8.9869556E+00  1.6079500E+03
 9.0090637E+00  1.5992769E+03
 9.0311718E+00  1.5915698E+03
 9.0532808E+00  1.5856134E+03
 9.0753889E+00  1.5822311E+03
 9.0974970E+00  1.5817418E+03
 9.1196051E+00  1.5801505E+03
 9.1417131E+00  1.5785134E+03
 9.1638212E+00  1.5789572E+03
 9.1859293E+00  1.5785031E+03
 9.2080374E+00  1.5777374E+03
 9.2301455E+00  1.5771987E+03
 9.2522535E+00  1.5755090E+03
 9.2743616E+00  1.5767510E+03
 9.2964697E+00  1.5771416E+03
 9.3185778E+00  1.5766589E+03
 9.3406858E+00  1.5758718E+03
 9.3627939E+00  1.5770121E+03
 9.3849020E+00  1.5798937E+03
 9.4070101E+00  1.5813610E+03
 9.4291191E+00  1.5814972E+03
 9.4512272E+00  1.5808815E+03
 9.4733353E+00  1.5820092E+03
 9.4954433E+00  1.5843488E+03
 9.5175514E+00  1.5862267E+03
 9.5396595E+00  1.5901763E+03
 9.5617676E+00  1.5940681E+03
 9.5838757E+00  1.5943364E+03
 9.6059837E+00  1.5934569E+03
 9.6280918E+00  1.5929745E+03
 9.6501999E+00  1.5928688E+03
 9.6723080E+00  1.5959152E+03
 9.6944160E+00  1.5989047E+03
 9.7165241E+00  1.6011071E+03
 9.7386322E+00  1.6026694E+03
 9.7607403E+00  1.6027419E+03
 9.7828484E+00  1.6016085E+03
 9.8049564E+00  1.6014019E+03
 9.8270655E+00  1.5998646E+03
 9.8491735E+00  1.5982532E+03
 9.8712816E+00  1.5976086E+03
 9.8933897E+00  1.5987571E+03
 9.9154978E+00  1.6014314E+03
 9.9376059E+00  1.6053696E+03
 9.9597139E+00  1.6087875E+03
 9.9818220E+00  1.6083400E+03
 1.0003930E+01  1.6087548E+03
 1.0026038E+01  1.6090131E+03
 1.0048146E+01  1.6084745E+03
 1.0070254E+01  1.6064540E+03
 1.0092362E+01  1.6051819E+03
 1.0114470E+01  1.6030828E+03
 1.0136579E+01  1.6012550E+03
 1.0158687E+01  1.6014590E+03
 1.0180795E+01  1.6034688E+03
 1.0202904E+01  1.6045540E+03
 1.0225012E+01  1.6070162E+03
 1.0247120E+01  1.6079768E+03
 1.0269228E+01  1.6071306E+03
 1.0291336E+01  1.6081744E+03
 1.0313444E+01  1.6105955E+03
 1.0335552E+01  1.6128727E+03
 1.0357660E+01  1.6146691E+03
 1.0379768E+01  1.6173453E+03
 1.0401876E+01  1.6214954E+03
 1.0423985E+01  1.6252750E+03
 1.0446093E+01  1.6301229E+03
 1.0468201E+01  1.6370162E+03
 1.0490309E+01  1.6439146E+03
 1.0512417E+01  1.6519681E+03
 1.0534525E+01  1.6634056E+03
 1.0556633E+01  1.6799139E+03
 1.0578741E+01  1.7027970E+03
 1.0600850E+01  1.7356788E+03
 1.0622958E+01  1.7766936E+03
 1.0645066E+01  1.8197343E+03
 1.0667174E+01  1.8549064E+03
 1.0689282E+01  1.8843638E+03
 1.0711390E+01  1.9181622E+03
 1.0733499E+01  1.9559590E+03
 1.0755607E+01  1.9781334E+03
 1.0777715E+01  1.9755825E+03
 1.0799823E+01  1.9609026E+03
 1.0821931E+01  1.9510464E+03
 1.0844039E+01  1.9476118E+03
 1.0866147E+01  1.9399121E+03
 1.0888255E+01  1.9186760E+03
 1.0910363E+01  1.8843419E+03
 1.0932471E+01  1.8423522E+03
 1.0954579E+01  1.8004220E+03
 1.0976688E+01  1.7597394E+03
 1.0998796E+01  1.7215609E+03
 1.1020905E+01  1.6955359E+03
 1.1043013E+01  1.6807902E+03
 1.1065121E+01  1.6712999E+03
 1.1087229E+01  1.6642872E+03
 1.1109337E+01  1.6604182E+03
 1.1131445E+01  1.6570721E+03
 1.1153553E+01  1.6543497E+03
 1.1175661E+01  1.6533979E+03
 1.1197769E+01  1.6548276E+03
 1.1219877E+01  1.6561492E+03
 1.1241985E+01  1.6561256E+03
 1.1264093E+01  1.6569248E+03
 1.1286201E+01  1.6583738E+03
 1.1308310E+01  1.6589076E+03
 1.1330418E+01  1.6612357E+03
 1.1352527E+01  1.6630476E+03
 1.1374635E+01  1.6632035E+03
 1.1396743E+01  1.6652461E+03
 1.1418851E+01  1.6694236E+03
 1.1440959E+01  1.6718010E+03
 1.1463067E+01  1.6736906E+03
 1.1485175E+01  1.6768043E+03
 1.1507283E+01  1.6819347E+03
 1.1529391E+01  1.6880886E+03
 1.1551499E+01  1.6944509E+03
 1.1573607E+01  1.6998080E+03
 1.1595716E+01  1.7037792E+03
 1.1617824E+01  1.7060558E+03
 1.1639932E+01  1.7062915E+03
 1.1662040E+01  1.7040428E+03
 1.1684148E+01  1.7018600E+03
 1.1706256E+01  1.6977876E+03
 1.1728364E+01  1.6909858E+03
 1.1750473E+01  1.6851621E+03
 1.1772581E+01  1.6803381E+03
 1.1794689E+01  1.6779418E+03
 1.1816797E+01  1.6799277E+03
 1.1838905E+01  1.6825448E+03
 1.1861013E+01  1.6846021E+03
 1.1883121E+01  1.6849254E+03
 1.1905230E+01  1.6843933E+03
 1.1927338E+01  1.6816042E+03
 1.1949446E+01  1.6768713E+03
 1.1971554E+01  1.6753468E+03
 1.1993662E+01  1.6752605E+03
 1.2015770E+01  1.6760986E+03
 1.2037878E+01  1.6772682E+03
 1.2059986E+01  1.6792396E+03
 1.2082094E+01  1.6812095E+03
 1.2104202E+01  1.6840773E+03
 1.2126311E+01  1.6875726E+03
 1.2148419E+01  1.6923979E+03
 1.2170527E+01  1.6979205E+03
 1.2192636E+01  1.7046064E+03
 1.2214744E+01  1.7127937E+03
 1.2236852E+01  1.7267749E+03
 1.2258960E+01  1.7469227E+03
 1.2281068E+01  1.7719171E+03
 1.2303176E+01  1.8035259E+03
 1.2325284E+01  1.8377462E+03
 1.2347392E+01  1.8735250E+03
 1.2369500E+01  1.9116184E+03
 1.2391608E+01  1.9578923E+03
 1.2413716E+01  2.0120829E+03
 1.2435824E+01  2.0649895E+03
 1.2457932E+01  2.1080027E+03
 1.2480041E+01  2.1280815E+03
 1.2502149E+01  2.1068149E+03
 1.2524258E+01  2.0411901E+03
 1.2546366E+01  1.9552343E+03
 1.2568474E+01  1.8694073E+03
 1.2590582E+01  1.8011415E+03
 1.2612690E+01  1.7540063E+03
 1.2634798E+01  1.7247275E+03
 1.2656906E+01  1.7054686E+03
 1.2679014E+01  1.6916742E+03
 1.2701122E+01  1.6835111E+03
 1.2723230E+01  1.6776467E+03
 1.2745338E+01  1.6742343E+03
 1.2767447E+01  1.6705920E+03
 1.2789555E+01  1.6679945E+03
 1.2811663E+01  1.6658514E+03
 1.2833771E+01  1.6642679E+03
 1.2855879E+01  1.6629524E+03
 1.2877987E+01  1.6621578E+03
 1.2900096E+01  1.6603910E+03
 1.2922204E+01  1.6584609E+03
 1.2944312E+01  1.6565437E+03
 1.2966420E+01  1.6547946E+03
 1.2988528E+01  1.6541117E+03
 1.3010636E+01  1.6537114E+03
 1.3032744E+01  1.6529961E+03
 1.3054852E+01  1.6507715E+03
 1.3076961E+01  1.6486670E+03
 1.3099069E+01  1.6486488E+03
 1.3121177E+01  1.6484757E+03
 1.3143285E+01  1.6489097E+03
 1.3165393E+01  1.6494072E+03
 1.3187501E+01  1.6484585E+03
 1.3209609E+01  1.6485887E+03
 1.3231717E+01  1.6472921E+03
 1.3253825E+01  1.6456455E+03
 1.3275933E+01  1.6465475E+03
 1.3298042E+01  1.6478350E+03
 1.3320150E+01  1.6476865E+03
 1.3342258E+01  1.6470383E+03
 1.3364367E+01  1.6476674E+03
 1.3386475E+01  1.6486976E+03
 1.3408583E+01  1.6492351E+03
 1.3430691E+01  1.6497871E+03
 1.3452799E+01  1.6494053E+03
 1.3474907E+01  1.6494133E+03
 1.3497015E+01  1.6506243E+03
 1.3519123E+01  1.6517489E+03
 1.3541231E+01  1.6512677E+03
 1.3563339E+01  1.6513127E+03
 1.3585447E+01  1.6513596E+03
 1.3607555E+01  1.6523979E+03
 1.3629663E+01  1.6528971E+03
 1.3651772E+01  1.6548136E+03
 1.3673881E+01  1.6549984E+03
 1.3695989E+01  1.6544633E+03
 1.3718097E+01  1.6537751E+03
 1.3740205E+01  1.6540299E+03
 1.3762313E+01  1.6556613E+03
 1.3784421E+01  1.6570403E+03
 1.3806529E+01  1.6588024E+03
 1.3828637E+01  1.6605961E+03
 1.3850745E+01  1.6609491E+03
 1.3872853E+01  1.6626915E+03
 1.3894961E+01  1.6647052E+03
 1.3917069E+01  1.6665973E+03
 1.3939178E+01  1.6681074E+03
 1.3961286E+01  1.6686353E+03
 1.3983394E+01  1.6665636E+03
 1.4005502E+01  1.6645507E+03
 1.4027610E+01  1.6625884E+03
 1.4049719E+01  1.6633799E+03
 1.4071827E+01  1.6645448E+03
 1.4093935E+01  1.6650171E+03
 1.4116043E+01  1.6664343E+03
 1.4138151E+01  1.6659508E+03
 1.4160259E+01  1.6642220E+03
 1.4182367E+01  1.6643486E+03
 1.4204475E+01  1.6648796E+03
 1.4226583E+01  1.6648132E+03
 1.4248692E+01  1.6647626E+03
 1.4270800E+01  1.6657545E+03
 1.4292908E+01  1.6656720E+03
 1.4315016E+01  1.6645040E+03
 1.4337124E+01  1.6641328E+03
 1.4359232E+01  1.6637544E+03
 1.4381340E+01  1.6644589E+03
 1.4403448E+01  1.6652533E+03
 1.4425556E+01  1.6672198E+03
 1.4447665E+01  1.6699979E+03
 1.4469773E+01  1.6708506E+03
 1.4491881E+01  1.6711642E+03
 1.4513989E+01  1.6700851E+03
 1.4536098E+01  1.6690400E+03
 1.4558206E+01  1.6694894E+03
 1.4580314E+01  1.6698759E+03
 1.4602422E+01  1.6707839E+03
 1.4624530E+01  1.6712262E+03
 1.4646638E+01  1.6714924E+03
 1.4668746E+01  1.6716317E+03
 1.4690854E+01  1.6730873E+03
 1.4712962E+01  1.6745243E+03
 1.4735070E+01  1.6740039E+03
 1.4757178E+01  1.6731007E+03
 1.4779286E+01  1.6751638E+03
 1.4801394E+01  1.6771455E+03
 1.4823503E+01  1.6770696E+03
 1.4845612E+01  1.6757894E+03
 1.4867720E+01  1.6757781E+03
 1.4889828E+01  1.6759700E+03
 1.4911936E+01  1.6772848E+03
 1.4934044E+01  1.6783781E+03
 1.4956152E+01  1.6789396E+03
 1.4978260E+01  1.6796715E+03
 1.5000368E+01  1.6804917E+03
 1.5022476E+01  1.6821418E+03
 1.5044584E+01  1.6824596E+03
 1.5066692E+01  1.6831648E+03
 1.5088800E+01  1.6847903E+03
 1.5110909E+01  1.6843944E+03
 1.5133017E+01  1.6849772E+03
 1.5155125E+01  1.6861648E+03
 1.5177233E+01  1.6877352E+03
 1.5199341E+01  1.6905945E+03
 1.5221450E+01  1.6924669E+03
 1.5243558E+01  1.6942651E+03
 1.5265666E+01  1.6959418E+03
 1.5287774E+01  1.6968691E+03
 1.5309882E+01  1.6981919E+03
 1.5331990E+01  1.6975059E+03
 1.5354098E+01  1.6958376E+03
 1.5376206E+01  1.6960487E+03
 1.5398314E+01  1.6960837E+03
 1.5420423E+01  1.6969421E+03
 1.5442531E+01  1.6970315E+03
 1.5464639E+01  1.6969138E+03
 1.5486747E+01  1.6974781E+03
 1.5508855E+01  1.6975696E+03
 1.5530963E+01  1.6980770E+03
 1.5553071E+01  1.7004480E+03
 1.5575179E+01  1.7017297E+03
 1.5597288E+01  1.7013965E+03
 1.5619396E+01  1.7022299E+03
 1.5641504E+01  1.7021780E+03
 1.5663612E+01  1.7021796E+03
 1.5685720E+01  1.7017705E+03
 1.5707829E+01  1.7019836E+03
 1.5729937E+01  1.7014736E+03
 1.5752045E+01  1.7017854E+03
 1.5774153E+01  1.7010385E+03
 1.5796261E+01  1.6991415E+03
 1.5818369E+01  1.6992079E+03
 1.5840477E+01  1.6994805E+03
 1.5862585E+01  1.7018092E+03
 1.5884693E+01  1.7042695E+03
 1.5906801E+01  1.7051191E+03
 1.5928909E+01  1.7055938E+03
 1.5951017E+01  1.7038129E+03
 1.5973126E+01  1.7028187E+03
 1.5995234E+01  1.7036550E+03
 1.6017342E+01  1.7033129E+03
 1.6039450E+01  1.7013513E+03
 1.6061558E+01  1.7010317E+03
 1.6083666E+01  1.7009009E+03
 1.6105774E+01  1.7011062E+03
 1.6127882E+01  1.7000688E+03
 1.6149990E+01  1.6981168E+03
 1.6172100E+01  1.6984465E+03
 1.6194208E+01  1.6995067E+03
 1.6216316E+01  1.6986475E+03
 1.6238424E+01  1.6977150E+03
 1.6260532E+01  1.6978640E+03
 1.6282640E+01  1.6980410E+03
 1.6304749E+01  1.6983981E+03
 1.6326857E+01  1.6977448E+03
 1.6348965E+01  1.6976873E+03
 1.6371073E+01  1.6985518E+03
 1.6393181E+01  1.6973556E+03
 1.6415289E+01  1.6970502E+03
 1.6437397E+01  1.6972571E+03
 1.6459505E+01  1.6964816E+03
 1.6481613E+01  1.6959429E+03
 1.6503721E+01  1.6953911E+03
 1.6525829E+01  1.6951631E+03
 1.6547937E+01  1.6947137E+03
 1.6570045E+01  1.6941167E+03
 1.6592154E+01  1.6948076E+03
 1.6614262E+01  1.6960344E+03
 1.6636370E+01  1.6955699E+03
 1.6658478E+01  1.6951051E+03
 1.6680586E+01  1.6952189E+03
 1.6702694E+01  1.6948250E+03
 1.6724802E+01  1.6969304E+03
 1.6746910E+01  1.6980076E+03
 1.6769018E+01  1.6982576E+03
 1.6791126E+01  1.6991449E+03
 1.6813234E+01  1.7008965E+03
 1.6835342E+01  1.7043452E+03
 1.6857450E+01  1.7101929E+03
 1.6879559E+01  1.7170977E+03
 1.6901667E+01  1.7270830E+03
 1.6923775E+01  1.7389769E+03
 1.6945885E+01  1.7502720E+03
 1.6967993E+01  1.7590557E+03
 1.6990101E+01  1.7621379E+03
 1.7012209E+01  1.7612477E+03
 1.7034317E+01  1.7575936E+03
 1.7056425E+01  1.7509028E+03
 1.7078533E+01  1.7420648E+03
 1.7100641E+01  1.7319633E+03
 1.7122749E+01  1.7211985E+03
 1.7144857E+01  1.7138959E+03
 1.7166965E+01  1.7068838E+03
 1.7189074E+01  1.7008982E+03
 1.7211182E+01  1.6974926E+03
 1.7233290E+01  1.6956250E+03
 1.7255398E+01  1.6952449E+03
 1.7277506E+01  1.6960404E+03
 1.7299614E+01  1.6967281E+03
 1.7321722E+01  1.6969200E+03
 1.7343830E+01  1.6957372E+03
 1.7365938E+01  1.6974136E+03
 1.7388046E+01  1.7002847E+03
 1.7410154E+01  1.7033586E+03
 1.7432262E+01  1.7072024E+03
 1.7454370E+01  1.7126144E+03
 1.7476479E+01  1.7194063E+03
 1.7498587E+01  1.7255416E+03
 1.7520695E+01  1.7327350E+03
 1.7542803E+01  1.7408311E+03
 1.7564911E+01  1.7474425E+03
 1.7587019E+01  1.7528490E+03
 1.7609127E+01  1.7588601E+03
 1.7631235E+01  1.7625138E+03
 1.7653343E+01  1.7589558E+03
 1.7675451E+01  1.7490369E+03
 1.7697559E+01  1.7373036E+03
 1.7719669E+01  1.7268069E+03
 1.7741777E+01  1.7143186E+03
 1.7763885E+01  1.7038135E+03
 1.7785994E+01  1.6957036E+03
 1.7808102E+01  1.6899023E+03
 1.7830210E+01  1.6866205E+03
 1.7852318E+01  1.6843668E+03
 1.7874426E+01  1.6828987E+03
 1.7896534E+01  1.6821774E+03
 1.7918642E+01  1.6812725E+03
 1.7940750E+01  1.6794629E+03
 1.7962858E+01  1.6767822E+03
 1.7984966E+01  1.6740079E+03
 1.8007074E+01  1.6709163E+03
 1.8029182E+01  1.6669036E+03
 1.8051291E+01  1.6623563E+03
 1.8073399E+01  1.6586621E+03
 1.8095507E+01  1.6566832E+03
 1.8117615E+01  1.6534249E+03
 1.8139723E+01  1.6497216E+03
 1.8161831E+01  1.6467672E+03
 1.8183939E+01  1.6451711E+03
 1.8206047E+01  1.6437616E+03
 1.8228155E+01  1.6412980E+03
 1.8250263E+01  1.6379553E+03
 1.8272371E+01  1.6352688E+03
 1.8294479E+01  1.6336735E+03
 1.8316587E+01  1.6309840E+03
 1.8338696E+01  1.6291775E+03
 1.8360804E+01  1.6272639E+03
 1.8382912E+01  1.6251064E+03
 1.8405020E+01  1.6242914E+03
 1.8427128E+01  1.6217528E+03
 1.8449236E+01  1.6191626E+03
 1.8471344E+01  1.6172588E+03
 1.8493454E+01  1.6148336E+03
 1.8515562E+01  1.6137565E+03
 1.8537670E+01  1.6123142E+03
 1.8559778E+01  1.6101145E+03
 1.8581886E+01  1.6075999E+03
 1.8603994E+01  1.6070914E+03
 1.8626102E+01  1.6068234E+03
 1.8648211E+01  1.6040918E+03
 1.8670319E+01  1.6009794E+03
 1.8692427E+01  1.5995172E+03
 1.8714535E+01  1.5977565E+03
 1.8736643E+01  1.5965062E+03
 1.8758751E+01  1.5946996E+03
 1.8780859E+01  1.5933998E+03
 1.8802967E+01  1.5944495E+03
 1.8825075E+01  1.5949791E+03
 1.8847183E+01  1.5941653E+03
 1.8869291E+01  1.5938644E+03
 1.8891399E+01  1.5928347E+03
 1.8913507E+01  1.5925885E+03
 1.8935616E+01  1.5915927E+03
 1.8957724E+01  1.5912068E+03
 1.8979832E+01  1.5892153E+03
 1.9001940E+01  1.5883800E+03
 1.9024048E+01  1.5867035E+03
 1.9046156E+01  1.5833395E+03
 1.9068264E+01  1.5799937E+03
 1.9090372E+01  1.5760701E+03
 1.9112480E+01  1.5721135E+03
 1.9134588E+01  1.5693431E+03
 1.9156696E+01  1.5662395E+03
 1.9178804E+01  1.5634650E+03
 1.9200912E+01  1.5612778E+03
 1.9223021E+01  1.5585527E+03
 1.9245131E+01  1.5557802E+03
 1.9267239E+01  1.5542445E+03
 1.9289347E+01  1.5522787E+03
 1.9311455E+01  1.5509348E+03
 1.9333563E+01  1.5492725E+03
 1.9355671E+01  1.5471399E+03
 1.9377779E+01  1.5456998E+03
 1.9399887E+01  1.5443021E+03
 1.9421995E+01  1.5425570E+03
 1.9444103E+01  1.5403749E+03
 1.9466211E+01  1.5395608E+03
 1.9488319E+01  1.5396498E+03
 1.9510427E+01  1.5383975E+03
 1.9532536E+01  1.5386781E+03
 1.9554644E+01  1.5377239E+03
 1.9576752E+01  1.5353915E+03
 1.9598860E+01  1.5343673E+03
 1.9620968E+01  1.5335385E+03
 1.9643076E+01  1.5315493E+03
 1.9665184E+01  1.5302975E+03
 1.9687292E+01  1.5287999E+03
 1.9709400E+01  1.5277609E+03
 1.9731508E+01  1.5258358E+03
 1.9753616E+01  1.5236718E+03
 1.9775724E+01  1.5225314E+03
 1.9797832E+01  1.5216371E+03
 1.9819941E+01  1.5211321E+03
 1.9842049E+01  1.5204344E+03
 1.9864157E+01  1.5205311E+03
 1.9886265E+01  1.5193364E+03
 1.9908373E+01  1.5174099E+03
 1.9930481E+01  1.5155984E+03
 1.9952589E+01  1.5142939E+03
 1.9974697E+01  1.5131003E+03
 1.9996805E+01  1.5124767E+03
 2.0018915E+01  1.5111293E+03
 2.0041023E+01  1.5099463E+03
 2.0063131E+01  1.5079956E+03
 2.0085239E+01  1.5054312E+03
 2.0107347E+01  1.5032711E+03
 2.0129456E+01  1.5017025E+03
 2.0151564E+01  1.5001165E+03
 2.0173672E+01  1.4982711E+03
 2.0195780E+01  1.4977045E+03
 2.0217888E+01  1.4980647E+03
 2.0239996E+01  1.4968230E+03
 2.0262104E+01  1.4962549E+03
 2.0284212E+01  1.4968127E+03
 2.0306320E+01  1.4966227E+03
 2.0328428E+01  1.4975891E+03
 2.0350536E+01  1.4995117E+03
 2.0372644E+01  1.5022153E+03
 2.0394753E+01  1.5025531E+03
 2.0416861E+01  1.5045985E+03
 2.0438969E+01  1.5084789E+03
 2.0461077E+01  1.5122612E+03
 2.0483185E+01  1.5160847E+03
 2.0505293E+01  1.5207931E+03
 2.0527401E+01  1.5252135E+03
 2.0549509E+01  1.5291473E+03
 2.0571617E+01  1.5332058E+03
 2.0593725E+01  1.5361752E+03
 2.0615833E+01  1.5372800E+03
 2.0637941E+01  1.5395920E+03
 2.0660049E+01  1.5422885E+03
 2.0682158E+01  1.5416764E+03
 2.0704266E+01  1.5388026E+03
 2.0726374E+01  1.5344929E+03
 2.0748482E+01  1.5309988E+03
 2.0770590E+01  1.5274637E+03
 2.0792700E+01  1.5224845E+03
 2.0814808E+01  1.5174182E+03
 2.0836916E+01  1.5130892E+03
 2.0859024E+01  1.5109358E+03
 2.0881132E+01  1.5084678E+03
 2.0903240E+01  1.5054794E+03
 2.0925348E+01  1.5019087E+03
 2.0947456E+01  1.4976572E+03
 2.0969564E+01  1.4913475E+03
 2.0991673E+01  1.4850469E+03
 2.1013781E+01  1.4772499E+03
 2.1035889E+01  1.4702146E+03
 2.1057997E+01  1.4647510E+03
 2.1080105E+01  1.4602570E+03
 2.1102213E+01  1.4557496E+03
 2.1124321E+01  1.4518019E+03
 2.1146429E+01  1.4497784E+03
 2.1168537E+01  1.4473031E+03
 2.1190645E+01  1.4439539E+03
 2.1212753E+01  1.4426055E+03
 2.1234861E+01  1.4414231E+03
 2.1256969E+01  1.4391075E+03
 2.1279078E+01  1.4370671E+03
 2.1301186E+01  1.4360570E+03
 2.1323294E+01  1.4350941E+03
 2.1345402E+01  1.4336627E+03
 2.1367510E+01  1.4317531E+03
 2.1389618E+01  1.4303373E+03
 2.1411726E+01  1.4294669E+03
 2.1433834E+01  1.4282814E+03
 2.1455942E+01  1.4276735E+03
 2.1478050E+01  1.4260453E+03
 2.1500158E+01  1.4241027E+03
 2.1522266E+01  1.4231144E+03
 2.1544374E+01  1.4220804E+03
 2.1566484E+01  1.4201633E+03
 2.1588593E+01  1.4194094E+03
 2.1610701E+01  1.4182859E+03
 2.1632809E+01  1.4164469E+03
 2.1654917E+01  1.4144750E+03
 2.1677025E+01  1.4123650E+03
 2.1699133E+01  1.4116233E+03
 2.1721241E+01  1.4103116E+03
 2.1743349E+01  1.4071405E+03
 2.1765457E+01  1.4051735E+03
 2.1787565E+01  1.4040331E+03
 2.1809673E+01  1.3997684E+03
 2.1831781E+01  1.3968542E+03
 2.1853889E+01  1.3946403E+03
 2.1875998E+01  1.3914348E+03
 2.1898106E+01  1.3872826E+03
 2.1920214E+01  1.3850171E+03
 2.1942322E+01  1.3830145E+03
 2.1964430E+01  1.3797316E+03
 2.1986538E+01  1.3774500E+03
 2.2008646E+01  1.3754100E+03
 2.2030754E+01  1.3723103E+03
 2.2052862E+01  1.3698102E+03
 2.2074970E+01  1.3694141E+03
 2.2097078E+01  1.3706639E+03
 2.2119186E+01  1.3696759E+03
 2.2141294E+01  1.3668789E+03
 2.2163403E+01  1.3648877E+03
 2.2185511E+01  1.3638812E+03
 2.2207619E+01  1.3643943E+03
 2.2229727E+01  1.3640979E+03
 2.2251835E+01  1.3633057E+03
 2.2273943E+01  1.3622430E+03
 2.2296051E+01  1.3612083E+03
 2.2318159E+01  1.3615565E+03
 2.2340269E+01  1.3602355E+03
 2.2362377E+01  1.3605001E+03
 2.2384485E+01  1.3599086E+03
 2.2406593E+01  1.3573507E+03
 2.2428701E+01  1.3544435E+03
 2.2450809E+01  1.3546611E+03
 2.2472918E+01  1.3521563E+03
 2.2495026E+01  1.3493595E+03
 2.2517134E+01  1.3487428E+03
 2.2539242E+01  1.3473682E+03
 2.2561350E+01  1.3438120E+03
 2.2583458E+01  1.3422075E+03
 2.2605566E+01  1.3401798E+03
 2.2627674E+01  1.3371655E+03
 2.2649782E+01  1.3358230E+03
 2.2671890E+01  1.3345065E+03
 2.2693998E+01  1.3326061E+03
 2.2716106E+01  1.3309518E+03
 2.2738214E+01  1.3289644E+03
 2.2760323E+01  1.3273096E+03
 2.2782431E+01  1.3252557E+03
 2.2804539E+01  1.3241771E+03
 2.2826647E+01  1.3231437E+03
 2.2848755E+01  1.3198802E+03
 2.2870863E+01  1.3193798E+03
 2.2892971E+01  1.3177349E+03
 2.2915079E+01  1.3173323E+03
 2.2937187E+01  1.3181332E+03
 2.2959295E+01  1.3192283E+03
 2.2981403E+01  1.3169309E+03
 2.3003511E+01  1.3169054E+03
 2.3025620E+01  1.3164825E+03
 2.3047728E+01  1.3147134E+03
 2.3069836E+01  1.3148352E+03
 2.3091946E+01  1.3142736E+03
 2.3114054E+01  1.3124097E+03
 2.3136162E+01  1.2888887E+03
 2.3158270E+01  1.2144275E+03
 2.3180378E+01  1.1442297E+03
 2.3202486E+01  1.0939537E+03
 2.3224594E+01  1.0642231E+03
 2.3246702E+01  1.0363082E+03
 2.3268810E+01  1.0058229E+03
 2.3290918E+01  9.7675134E+02
 2.3313026E+01  9.6887317E+02
 2.3335135E+01  9.5386182E+02
 2.3357243E+01  9.3739362E+02
 2.3379351E+01  9.2078137E+02
 2.3401459E+01  9.0745282E+02
 2.3423567E+01  8.9261456E+02
 2.3445675E+01  8.7970129E+02
 2.3467783E+01  8.6736188E+02
 2.3489891E+01  8.5291138E+02
 2.3511999E+01  8.4087909E+02
 2.3534107E+01  8.3983954E+02
 2.3556215E+01  8.3421375E+02
 2.3578323E+01  8.2861835E+02
 2.3600431E+01  8.2116858E+02
 2.3622540E+01  8.1547198E+02
 2.3644648E+01  8.0732098E+02
 2.3666756E+01  8.0077203E+02
 2.3688864E+01  7.9327496E+02
 2.3710972E+01  7.8815955E+02
 2.3733080E+01  7.8284363E+02
 2.3755188E+01  7.7900867E+02
 2.3777296E+01  7.7562811E+02
 2.3799404E+01  7.7411774E+02
 2.3821512E+01  7.7218909E+02
 2.3843620E+01  7.7036060E+02
 2.3865730E+01  7.6988391E+02
 2.3887838E+01  7.6751337E+02
 2.3909946E+01  7.6753363E+02
 2.3932055E+01  7.6626410E+02
 2.3954163E+01  7.6538116E+02
 2.3976271E+01  7.6421802E+02
 2.3998379E+01  7.6403638E+02
 2.4020487E+01  7.6326019E+02
 2.4042595E+01  7.6394244E+02
 2.4064703E+01  7.6136853E+02
 2.4086811E+01  7.6076343E+02
 2.4108919E+01  7.5724280E+02
 2.4131027E+01  7.5283789E+02
 2.4153135E+01  7.4922449E+02
 2.4175243E+01  7.4283624E+02
 2.4197351E+01  7.3606000E+02
 2.4219460E+01  7.3095166E+02
 2.4241568E+01  7.2351721E+02
 2.4263676E+01  7.1592902E+02
 2.4285784E+01  7.0822717E+02
 2.4307892E+01  6.9839850E+02
 2.4330000E+01  6.8747430E+02
 2.4352108E+01  6.7657446E+02
 2.4374216E+01  6.6458905E+02
 2.4396324E+01  6.5120978E+02
 2.4418432E+01  6.3682990E+02
 2.4440540E+01  6.2579437E+02
 2.4462648E+01  6.1020569E+02
 2.4484756E+01  5.9172852E+02
 2.4506865E+01  5.7510681E+02
 2.4528973E+01  5.5057678E+02
 2.4551081E+01  5.3337640E+02
 2.4573189E+01  5.0020007E+02
 2.4595297E+01  4.7023273E+02
 2.4617405E+01  4.3409531E+02
 2.4639515E+01  4.1054913E+02
 2.4661623E+01  3.8258020E+02
 2.4683731E+01  3.4454825E+02
 2.4705839E+01  2.9467578E+02
 2.4727947E+01  2.3036903E+02
 2.4750055E+01  1.2739689E+02
 2.4772163E+01  4.1687794E+01
 2.4794271E+01  2.3511856E+01
 2.4816380E+01  2.3110895E+01
 2.4838488E+01  2.3022869E+01
 2.4860596E+01  2.2626020E+01
 2.4882704E+01  2.2416391E+01
 2.4904812E+01  2.2124752E+01
 2.4926920E+01  2.1903515E+01
 2.4949028E+01  2.1734118E+01
 2.4971136E+01  2.1309797E+01
 2.4993244E+01  2.0927086E+01
 2.5015352E+01  2.0488249E+01
 2.5037460E+01  2.0064180E+01
 2.5059568E+01  1.9617323E+01
 2.5081676E+01  1.9287436E+01
 2.5103785E+01  1.9090656E+01
 2.5125893E+01  1.8863247E+01
 2.5148001E+01  1.8512980E+01
 2.5170109E+01  1.8132977E+01
 2.5192217E+01  1.7858620E+01
 2.5214325E+01  1.7679634E+01
 2.5236433E+01  1.7410828E+01
 2.5258541E+01  1.7242735E+01
 2.5280649E+01  1.7207390E+01
 2.5302757E+01  1.7092474E+01
 2.5324865E+01  1.7051228E+01
 2.5346973E+01  1.7058184E+01
 2.5369081E+01  1.6977814E+01
 2.5391190E+01  1.6903507E+01
 2.5413300E+01  1.6906712E+01
 2.5435408E+01  1.6903767E+01
 2.5457516E+01  1.6917923E+01
 2.5479624E+01  1.6970650E+01
 2.5501732E+01  1.6875040E+01
 2.5523840E+01  1.6950550E+01
 2.5545948E+01  1.6845528E+01
 2.5568056E+01  1.6967165E+01
 2.5590164E+01  1.7033474E+01
 2.5612272E+01  1.7124836E+01
 2.5634380E+01  1.7157091E+01
 2.5656488E+01  1.7521181E+01
 2.5678596E+01  1.7719385E+01
 2.5700705E+01  1.7912436E+01
 2.5722813E+01  1.8138266E+01
 2.5744921E+01  1.8324606E+01
 2.5767029E+01  1.8419044E+01
 2.5789137E+01  1.8634083E+01
 2.5811245E+01  1.8792141E+01
 2.5833353E+01  1.8946650E+01
 2.5855461E+01  1.8927235E+01
 2.5877569E+01  1.9091267E+01
 2.5899677E+01  1.9221588E+01
 2.5921785E+01  1.9062265E+01
 2.5943893E+01  1.9226694E+01
 2.5966002E+01  1.9159628E+01
 2.5988110E+01  1.9366129E+01
 2.6010218E+01  1.9334969E+01
 2.6032326E+01  1.9400013E+01
 2.6054434E+01  1.9513025E+01
 2.6076542E+01  1.9439104E+01
 2.6098650E+01  1.9633011E+01
 2.6120758E+01  1.9573477E+01
 2.6142866E+01  1.9755621E+01
 2.6164974E+01  1.9793325E+01
 2.6187084E+01  2.0047743E+01
 2.6209192E+01  2.0380079E+01
 2.6231300E+01  2.0897297E+01
 2.6253408E+01  2.1261129E+01
 2.6275517E+01  2.1528881E+01
 2.6297625E+01  2.1721718E+01
 2.6319733E+01  2.1924490E+01
 2.6341841E+01  2.2112465E+01
 2.6363949E+01  2.2293249E+01
 2.6386057E+01  2.2435516E+01
 2.6408165E+01  2.2705257E+01
 2.6430273E+01  2.2922186E+01
 2.6452381E+01  2.2946888E+01
 2.6474489E+01  2.2886946E+01
 2.6496597E+01  2.2798998E+01
 2.6518705E+01  2.2825603E+01
 2.6540813E+01  2.2919760E+01
 2.6562922E+01  2.2840136E+01
 2.6585030E+01  2.2835463E+01
 2.6607138E+01  2.2888447E+01
 2.6629246E+01  2.2859419E+01
 2.6651354E+01  2.2876171E+01
 2.6673462E+01  2.3054733E+01
 2.6695570E+01  2.3141937E+01
 2.6717678E+01  2.3306799E+01
 2.6739786E+01  2.3500427E+01
 2.6761894E+01  2.3598412E+01
 2.6784002E+01  2.3563540E+01
 2.6806110E+01  2.3299953E+01
 2.6828218E+01  2.3328615E+01
 2.6850327E+01  2.3139212E+01
 2.6872435E+01  2.3094973E+01
 2.6894543E+01  2.2935762E+01
 2.6916651E+01  2.2955690E+01
 2.6938761E+01  2.3024221E+01
 2.6960869E+01  2.3089268E+01
 2.6982977E+01  2.3337658E+01
 2.7005085E+01  2.3538807E+01
 2.7027193E+01  2.3530596E+01
 2.7049301E+01  2.3909582E+01
 2.7071409E+01  2.3834625E+01
 2.7093517E+01  2.3940290E+01
 2.7115625E+01  2.3965736E+01
 2.7137733E+01  2.4222162E+01
 2.7159842E+01  2.4302036E+01
 2.7181950E+01  2.4316126E+01
 2.7204058E+01  2.4497663E+01
 2.7226166E+01  2.4449591E+01
 2.7248274E+01  2.4486984E+01
 2.7270382E+01  2.4259239E+01
 2.7292490E+01  2.4203133E+01
 2.7314598E+01  2.4127522E+01
 2.7336706E+01  2.3938339E+01
 2.7358814E+01  2.3645376E+01
 2.7380922E+01  2.2860273E+01
 2.7403030E+01  2.2591318E+01
 2.7425138E+01  2.2537533E+01
 2.7447247E+01  2.2545120E+01
 2.7469355E+01  2.2387629E+01
 2.7491463E+01  2.2188412E+01
 2.7513571E+01  2.1897146E+01
 2.7535679E+01  2.2039480E+01
 2.7557787E+01  2.2442577E+01
 2.7579895E+01  2.2921871E+01
 2.7602003E+01  2.3358391E+01
 2.7624111E+01  2.4001213E+01
 2.7646219E+01  2.4406252E+01
 2.7668327E+01  2.4767269E+01
 2.7690435E+01  2.4623957E+01
 2.7712545E+01  2.4412138E+01
 2.7734653E+01  2.4155224E+01
 2.7756762E+01  2.3927490E+01
 2.7778870E+01  2.3753368E+01
 2.7800978E+01  2.3643225E+01
 2.7823086E+01  2.3663286E+01
 2.7845194E+01  2.3617231E+01
 2.7867302E+01  2.3417521E+01
 2.7889410E+01  2.3029739E+01
 2.7911518E+01  2.3233952E+01
 2.7933626E+01  2.3648346E+01
 2.7955734E+01  2.4103220E+01
 2.7977842E+01  2.4419956E+01
 2.7999950E+01  2.4938534E+01
 2.8022058E+01  2.5438005E+01
 2.8044167E+01  2.5767227E+01
 2.8066275E+01  2.6020630E+01
 2.8088383E+01  2.6612408E+01
 2.8110491E+01  2.7135670E+01
 2.8132599E+01  2.7667143E+01
 2.8154707E+01  2.8307049E+01
 2.8176815E+01  2.8644184E+01
 2.8198923E+01  2.9449284E+01
 2.8221031E+01  3.0098444E+01
 2.8243139E+01  3.0355173E+01
 2.8265247E+01  3.0942379E+01
 2.8287355E+01  3.1301828E+01
 2.8309464E+01  3.1980942E+01
 2.8331572E+01  3.2601143E+01
 2.8353680E+01  3.2896477E+01
 2.8375788E+01  3.3025009E+01
 2.8397896E+01  3.2719994E+01
 2.8420004E+01  3.2568329E+01
 2.8442112E+01  3.3048862E+01
 2.8464220E+01  3.2739281E+01
 2.8486330E+01  3.2577732E+01
 2.8508438E+01  3.2499954E+01
 2.8530546E+01  3.1919758E+01
 2.8552654E+01  3.2061516E+01
 2.8574762E+01  3.1677977E+01
 2.8596870E+01  3.1188654E+01
 2.8618979E+01  3.1179176E+01
 2.8641087E+01  3.0887344E+01
 2.8663195E+01  3.0589182E+01
 2.8685303E+01  3.0406700E+01
 2.8707411E+01  3.0224508E+01
 2.8729519E+01  3.0030367E+01
 2.8751627E+01  3.0036512E+01
 2.8773735E+01  3.0337637E+01
 2.8795843E+01  3.0514372E+01
 2.8817951E+01  3.0380848E+01
 2.8840059E+01  3.0366877E+01
 2.8862167E+01  3.0420597E+01
 2.8884275E+01  3.0592831E+01
 2.8906384E+01  3.1673086E+01
 2.8928492E+01  3.2293575E+01
 2.8950600E+01  3.2896152E+01
 2.8972708E+01  3.3948807E+01
 2.8994816E+01  3.4766598E+01
 2.9016924E+01  3.5276268E+01
 2.9039032E+01  3.6062744E+01
 2.9061140E+01  3.6841007E+01
 2.9083248E+01  3.7705276E+01
 2.9105356E+01  3.8942074E+01
 2.9127464E+01  3.9652863E+01
 2.9149572E+01  4.0880138E+01
 2.9171680E+01  4.1802853E+01
 2.9193789E+01  4.2158424E+01
 2.9215897E+01  4.2779999E+01
 2.9238005E+01  4.3189274E+01
 2.9260115E+01  4.3508396E+01
 2.9282223E+01  4.3908222E+01
 2.9304331E+01  4.4075123E+01
 2.9326439E+01  4.4516876E+01
 2.9348547E+01  4.5257355E+01
 2.9370655E+01  4.5355442E+01
 2.9392763E+01  4.5160336E+01
 2.9414871E+01  4.5646881E+01
 2.9436979E+01  4.5503872E+01
 2.9459087E+01  4.5293106E+01
 2.9481195E+01  4.5527645E+01
 2.9503304E+01  4.4675293E+01
 2.9525412E+01  4.3965893E+01
 2.9547520E+01  4.4520443E+01
 2.9569628E+01  4.4847393E+01
 2.9591736E+01  4.4979630E+01
 2.9613844E+01  4.6247421E+01
 2.9635952E+01  4.7576233E+01
 2.9658060E+01  4.8879467E+01
 2.9680168E+01  5.0651047E+01
 2.9702276E+01  5.2478237E+01
 2.9724384E+01  5.3098011E+01
 2.9746492E+01  5.3548306E+01
 2.9768600E+01  5.4655029E+01
 2.9790709E+01  5.4772373E+01
 2.9812817E+01  5.5333649E+01
 2.9834925E+01  5.6878822E+01
 2.9857033E+01  5.7333977E+01
 2.9879141E+01  5.7436131E+01
 2.9901249E+01  5.9020580E+01
 2.9923357E+01  5.9484215E+01
 2.9945465E+01  5.9616360E+01
 2.9967573E+01  6.0641243E+01
 2.9989681E+01  6.0986435E+01
 3.0011789E+01  6.1196007E+01
 3.0033899E+01  6.2251698E+01
 3.0056007E+01  6.2831921E+01
 3.0078115E+01  6.2951782E+01
 3.0100224E+01  6.4199486E+01
 3.0122332E+01  6.5820595E+01
 3.0144440E+01  6.5853081E+01
 3.0166548E+01  6.6237976E+01
 3.0188656E+01  6.7607819E+01
 3.0210764E+01  6.6762352E+01
 3.0232872E+01  6.6460602E+01
 3.0254980E+01  6.7636444E+01
 3.0277088E+01  6.7656517E+01
 3.0299196E+01  6.7662582E+01
 3.0321304E+01  6.9120087E+01
 3.0343412E+01  6.9875465E+01
 3.0365520E+01  6.9936676E+01
 3.0387629E+01  7.0638397E+01
 3.0409737E+01  7.2351868E+01
 3.0431845E+01  7.2451355E+01
 3.0453953E+01  7.1878067E+01
 3.0476061E+01  7.3738068E+01
 3.0498169E+01  7.5383331E+01
 3.0520277E+01  7.5847961E+01
 3.0542385E+01  7.7228554E+01
 3.0564493E+01  7.8077057E+01
 3.0586601E+01  7.8774147E+01
 3.0608709E+01  8.0459282E+01
 3.0630817E+01  8.0308395E+01
 3.0652925E+01  8.0973160E+01
 3.0675034E+01  8.2845566E+01
 3.0697142E+01  8.1894989E+01
 3.0719250E+01  8.1104622E+01
 3.0741358E+01  8.2526718E+01
 3.0763466E+01  8.2838821E+01
 3.0785574E+01  8.1728119E+01
 3.0807684E+01  8.3245300E+01
 3.0829792E+01  8.4122818E+01
 3.0851900E+01  8.3049294E+01
 3.0874008E+01  8.4870155E+01
 3.0896116E+01  8.5673027E+01
 3.0918224E+01  8.5824417E+01
 3.0940332E+01  8.7408958E+01
 3.0962440E+01  8.9164063E+01
 3.0984549E+01  9.1911995E+01
 3.1006657E+01  9.2889893E+01
 3.1028765E+01  9.3301208E+01
 3.1050873E+01  9.7476753E+01
 3.1072981E+01  9.9208305E+01
 3.1095089E+01  9.7542358E+01
 3.1117197E+01  1.0034406E+02
 3.1139305E+01  1.0371925E+02
 3.1161413E+01  1.0377155E+02
 3.1183521E+01  1.0441933E+02
 3.1205629E+01  1.1061405E+02
 3.1227737E+01  1.1570792E+02
 3.1249846E+01  1.1436473E+02
 3.1271954E+01  1.1734782E+02
 3.1294062E+01  1.2106905E+02
 3.1316170E+01  1.1732308E+02
 3.1338278E+01  1.1694091E+02
 3.1360386E+01  1.1898468E+02
 3.1382494E+01  1.1685796E+02
 3.1404602E+01  1.1615421E+02
 3.1426710E+01  1.1889353E+02
 3.1448818E+01  1.1917158E+02
 3.1470926E+01  1.1793999E+02
 3.1493034E+01  1.2052937E+02
 3.1515142E+01  1.2455953E+02
 3.1537251E+01  1.2548563E+02
 3.1559361E+01  1.2805936E+02
 3.1581469E+01  1.3063982E+02
 3.1603577E+01  1.3210039E+02
 3.1625685E+01  1.3248770E+02
 3.1647793E+01  1.3332384E+02
 3.1669901E+01  1.3429411E+02
 3.1692009E+01  1.3418553E+02
 3.1714117E+01  1.3581253E+02
 3.1736225E+01  1.3663019E+02
 3.1758333E+01  1.3808379E+02
 3.1780441E+01  1.4084206E+02
 3.1802549E+01  1.3862111E+02
 3.1824657E+01  1.3595436E+02
 3.1846766E+01  1.3923351E+02
 3.1868874E+01  1.4058975E+02
 3.1890982E+01  1.3956441E+02
 3.1913090E+01  1.4046826E+02
 3.1935198E+01  1.4193208E+02
 3.1957306E+01  1.4307898E+02
 3.1979414E+01  1.4122293E+02
 3.2001522E+01  1.4348909E+02
 3.2023632E+01  1.4631654E+02
 3.2045738E+01  1.4105219E+02
 3.2067848E+01  1.3643236E+02
 3.2089954E+01  1.3885291E+02
 3.2112064E+01  1.4046811E+02
 3.2134171E+01  1.3535097E+02
 3.2156281E+01  1.3070273E+02
 3.2178387E+01  1.3308376E+02
 3.2200497E+01  1.3138611E+02
 3.2222603E+01  1.2492226E+02
 3.2244713E+01  1.2148602E+02
 3.2266819E+01  1.2071250E+02
 3.2288929E+01  1.1681464E+02
 3.2311035E+01  1.1213803E+02
 3.2333145E+01  1.0429391E+02
 3.2355251E+01  9.6155510E+01
 3.2377361E+01  9.7676285E+01
 3.2399467E+01  1.0050719E+02
 3.2421577E+01  1.0169880E+02
 3.2443684E+01  1.0376276E+02
 3.2465794E+01  1.0764370E+02
 3.2487900E+01  1.1461414E+02
 3.2510010E+01  1.1987961E+02
 3.2532116E+01  1.2700266E+02
 3.2554226E+01  1.3430487E+02
 3.2576332E+01  1.5219508E+02
 3.2598442E+01  1.6680074E+02
 3.2620548E+01  1.7419296E+02
 3.2642658E+01  1.8063818E+02
 3.2664764E+01  1.9657361E+02
 3.2686874E+01  2.1625093E+02
 3.2708981E+01  2.3431821E+02
 3.2731091E+01  2.6655896E+02
