D:\DATA\UserData\CuiTian20190403\CWH\BA\BA_13.tif: 2-theta Scan
2-Theta Angle (Degrees)
Intensity
       1481
 1.1054066E-02  4.6331993E+01
 3.3162199E-02  4.5432514E+01
 5.5270333E-02  4.3123680E+01
 7.7378467E-02  4.1348553E+01
 9.9486597E-02  4.1372913E+01
 1.2159473E-01  4.2477581E+01
 1.4370286E-01  4.2823742E+01
 1.6581100E-01  4.1618687E+01
 1.8791912E-01  4.0539913E+01
 2.1002726E-01  4.0279930E+01
 2.3213540E-01  4.0794170E+01
 2.5424352E-01  4.0557625E+01
 2.7635166E-01  3.9371098E+01
 2.9845980E-01  4.0079708E+01
 3.2056794E-01  4.5012745E+01
 3.4267604E-01  5.0401577E+01
 3.6478418E-01  4.5083961E+01
 3.8689232E-01  4.0906647E+01
 4.0900046E-01  4.1301449E+01
 4.3110859E-01  3.9572079E+01
 4.5321673E-01  3.8791447E+01
 4.7532487E-01  3.9141029E+01
 4.9743298E-01  3.9649162E+01
 5.1954114E-01  3.9172367E+01
 5.4164928E-01  3.9208023E+01
 5.6375736E-01  4.0062695E+01
 5.8586550E-01  4.0497879E+01
 6.0797364E-01  4.0141319E+01
 6.3008177E-01  3.9958549E+01
 6.5218991E-01  4.0275524E+01
 6.7429805E-01  4.0608501E+01
 6.9640619E-01  4.0406013E+01
 7.1851432E-01  3.9890060E+01
 7.4062246E-01  3.9521389E+01
 7.6273060E-01  3.9264385E+01
 7.8483874E-01  3.9198009E+01
 8.0694687E-01  3.9455822E+01
 8.2905495E-01  3.9733971E+01
 8.5116309E-01  4.0264851E+01
 8.7327123E-01  4.0750008E+01
 8.9537936E-01  4.0103462E+01
 9.1748750E-01  4.0082611E+01
 9.3959564E-01  3.9879940E+01
 9.6170378E-01  3.9360722E+01
 9.8381191E-01  3.9826767E+01
 1.0059201E+00  4.0580540E+01
 1.0280281E+00  4.1190128E+01
 1.0501363E+00  4.1306641E+01
 1.0722444E+00  4.1086742E+01
 1.0943526E+00  4.1098499E+01
 1.1164607E+00  4.0903915E+01
 1.1385689E+00  4.0517277E+01
 1.1606770E+00  4.0855923E+01
 1.1827852E+00  4.1168430E+01
 1.2048932E+00  4.0912537E+01
 1.2270014E+00  4.0997559E+01
 1.2491095E+00  4.1144222E+01
 1.2712176E+00  4.1055080E+01
 1.2933258E+00  4.1290810E+01
 1.3154339E+00  4.1686630E+01
 1.3375421E+00  4.1856632E+01
 1.3596501E+00  4.1818130E+01
 1.3817583E+00  4.1795444E+01
 1.4038664E+00  4.1724861E+01
 1.4259746E+00  4.1924530E+01
 1.4480827E+00  4.1785622E+01
 1.4701909E+00  4.2171104E+01
 1.4922990E+00  4.2419586E+01
 1.5144070E+00  4.2818378E+01
 1.5365152E+00  4.3024837E+01
 1.5586233E+00  4.3528313E+01
 1.5807315E+00  4.3653580E+01
 1.6028396E+00  4.3696793E+01
 1.6249478E+00  4.4133808E+01
 1.6470559E+00  4.4428997E+01
 1.6691641E+00  4.4534389E+01
 1.6912721E+00  4.4387329E+01
 1.7133803E+00  4.4576294E+01
 1.7354884E+00  4.5141705E+01
 1.7575966E+00  4.5876678E+01
 1.7797047E+00  4.6671352E+01
 1.8018128E+00  4.7718304E+01
 1.8239210E+00  4.9172592E+01
 1.8460290E+00  5.1006592E+01
 1.8681372E+00  5.4342979E+01
 1.8902453E+00  6.2525383E+01
 1.9123535E+00  8.0580055E+01
 1.9344616E+00  1.1005437E+02
 1.9565698E+00  1.4431213E+02
 1.9786779E+00  1.7916550E+02
 2.0007861E+00  2.1481879E+02
 2.0228941E+00  2.4755309E+02
 2.0450022E+00  2.8005521E+02
 2.0671103E+00  3.1361505E+02
 2.0892186E+00  3.5230945E+02
 2.1113267E+00  3.9530881E+02
 2.1334348E+00  4.4241797E+02
 2.1555429E+00  4.9525760E+02
 2.1776512E+00  5.4754388E+02
 2.1997592E+00  5.9126678E+02
 2.2218673E+00  6.2665155E+02
 2.2439754E+00  6.5570209E+02
 2.2660837E+00  6.8130176E+02
 2.2881918E+00  7.0843390E+02
 2.3102999E+00  7.3290863E+02
 2.3324080E+00  7.5537610E+02
 2.3545160E+00  7.8040051E+02
 2.3766243E+00  8.0716534E+02
 2.3987324E+00  8.3318823E+02
 2.4208405E+00  8.5662164E+02
 2.4429486E+00  8.7836298E+02
 2.4650569E+00  8.9777545E+02
 2.4871650E+00  9.1656830E+02
 2.5092731E+00  9.3507361E+02
 2.5313811E+00  9.5372394E+02
 2.5534894E+00  9.7364612E+02
 2.5755975E+00  9.9327612E+02
 2.5977056E+00  1.0102279E+03
 2.6198137E+00  1.0276539E+03
 2.6419218E+00  1.0449048E+03
 2.6640301E+00  1.0605670E+03
 2.6861382E+00  1.0771420E+03
 2.7082462E+00  1.0940199E+03
 2.7303543E+00  1.1121350E+03
 2.7524626E+00  1.1260583E+03
 2.7745707E+00  1.1409468E+03
 2.7966788E+00  1.1568340E+03
 2.8187869E+00  1.1702495E+03
 2.8408952E+00  1.1830417E+03
 2.8630033E+00  1.1972238E+03
 2.8851113E+00  1.2133163E+03
 2.9072194E+00  1.2294675E+03
 2.9293275E+00  1.2406008E+03
 2.9514358E+00  1.2522948E+03
 2.9735439E+00  1.2649431E+03
 2.9956520E+00  1.2772129E+03
 3.0177600E+00  1.2899497E+03
 3.0398684E+00  1.3001583E+03
 3.0619764E+00  1.3092927E+03
 3.0840845E+00  1.3198983E+03
 3.1061926E+00  1.3314620E+03
 3.1283009E+00  1.3421250E+03
 3.1504090E+00  1.3529498E+03
 3.1725171E+00  1.3613024E+03
 3.1946251E+00  1.3693069E+03
 3.2167332E+00  1.3782418E+03
 3.2388415E+00  1.3868533E+03
 3.2609496E+00  1.3960515E+03
 3.2830577E+00  1.4051257E+03
 3.3051658E+00  1.4141927E+03
 3.3272741E+00  1.4207218E+03
 3.3493822E+00  1.4284130E+03
 3.3714902E+00  1.4348258E+03
 3.3935983E+00  1.4417423E+03
 3.4157066E+00  1.4508032E+03
 3.4378147E+00  1.4606271E+03
 3.4599228E+00  1.4684003E+03
 3.4820309E+00  1.4759100E+03
 3.5041389E+00  1.4859188E+03
 3.5262473E+00  1.4917218E+03
 3.5483553E+00  1.4973911E+03
 3.5704634E+00  1.5029626E+03
 3.5925715E+00  1.5105260E+03
 3.6146798E+00  1.5191406E+03
 3.6367879E+00  1.5231855E+03
 3.6588960E+00  1.5276145E+03
 3.6810040E+00  1.5300916E+03
 3.7031121E+00  1.5363419E+03
 3.7252204E+00  1.5422421E+03
 3.7473285E+00  1.5446310E+03
 3.7694366E+00  1.5503895E+03
 3.7915447E+00  1.5582329E+03
 3.8136530E+00  1.5639026E+03
 3.8357611E+00  1.5667046E+03
 3.8578691E+00  1.5697834E+03
 3.8799772E+00  1.5738458E+03
 3.9020855E+00  1.5805248E+03
 3.9241936E+00  1.5868719E+03
 3.9463017E+00  1.5899559E+03
 3.9684098E+00  1.5923103E+03
 3.9905179E+00  1.5975249E+03
 4.0126262E+00  1.6007668E+03
 4.0347342E+00  1.6028750E+03
 4.0568423E+00  1.6084968E+03
 4.0789504E+00  1.6128397E+03
 4.1010585E+00  1.6134785E+03
 4.1231666E+00  1.6134701E+03
 4.1452751E+00  1.6165686E+03
 4.1673832E+00  1.6215355E+03
 4.1894913E+00  1.6247205E+03
 4.2115993E+00  1.6286321E+03
 4.2337074E+00  1.6294803E+03
 4.2558155E+00  1.6291699E+03
 4.2779236E+00  1.6321697E+03
 4.3000317E+00  1.6359552E+03
 4.3221397E+00  1.6396586E+03
 4.3442483E+00  1.6410732E+03
 4.3663564E+00  1.6439700E+03
 4.3884645E+00  1.6463578E+03
 4.4105725E+00  1.6480728E+03
 4.4326806E+00  1.6491880E+03
 4.4547887E+00  1.6497301E+03
 4.4768968E+00  1.6516875E+03
 4.4990048E+00  1.6545243E+03
 4.5211129E+00  1.6560895E+03
 4.5432215E+00  1.6565055E+03
 4.5653296E+00  1.6555530E+03
 4.5874376E+00  1.6544291E+03
 4.6095457E+00  1.6559849E+03
 4.6316538E+00  1.6586909E+03
 4.6537619E+00  1.6596121E+03
 4.6758699E+00  1.6585577E+03
 4.6979780E+00  1.6611140E+03
 4.7200866E+00  1.6637543E+03
 4.7421947E+00  1.6652516E+03
 4.7643027E+00  1.6667997E+03
 4.7864108E+00  1.6654573E+03
 4.8085189E+00  1.6655680E+03
 4.8306270E+00  1.6646434E+03
 4.8527350E+00  1.6639415E+03
 4.8748431E+00  1.6654308E+03
 4.8969512E+00  1.6659998E+03
 4.9190598E+00  1.6659183E+03
 4.9411678E+00  1.6667526E+03
 4.9632759E+00  1.6677390E+03
 4.9853840E+00  1.6702378E+03
 5.0074921E+00  1.6685094E+03
 5.0296001E+00  1.6671040E+03
 5.0517082E+00  1.6664800E+03
 5.0738163E+00  1.6673406E+03
 5.0959244E+00  1.6685018E+03
 5.1180329E+00  1.6690140E+03
 5.1401410E+00  1.6679194E+03
 5.1622491E+00  1.6686759E+03
 5.1843572E+00  1.6685457E+03
 5.2064652E+00  1.6678245E+03
 5.2285733E+00  1.6667389E+03
 5.2506814E+00  1.6666229E+03
 5.2727895E+00  1.6654258E+03
 5.2948980E+00  1.6655840E+03
 5.3170061E+00  1.6660658E+03
 5.3391142E+00  1.6668416E+03
 5.3612223E+00  1.6659260E+03
 5.3833303E+00  1.6651528E+03
 5.4054384E+00  1.6639861E+03
 5.4275465E+00  1.6624847E+03
 5.4496546E+00  1.6634065E+03
 5.4717627E+00  1.6642336E+03
 5.4938712E+00  1.6641257E+03
 5.5159793E+00  1.6641212E+03
 5.5380874E+00  1.6645126E+03
 5.5601954E+00  1.6632137E+03
 5.5823035E+00  1.6613749E+03
 5.6044116E+00  1.6612572E+03
 5.6265197E+00  1.6601658E+03
 5.6486278E+00  1.6613440E+03
 5.6707358E+00  1.6602196E+03
 5.6928444E+00  1.6610195E+03
 5.7149525E+00  1.6609943E+03
 5.7370605E+00  1.6584120E+03
 5.7591686E+00  1.6565040E+03
 5.7812767E+00  1.6571095E+03
 5.8033848E+00  1.6577954E+03
 5.8254929E+00  1.6572156E+03
 5.8476009E+00  1.6587251E+03
 5.8697095E+00  1.6579886E+03
 5.8918176E+00  1.6568293E+03
 5.9139256E+00  1.6557612E+03
 5.9360337E+00  1.6540625E+03
 5.9581418E+00  1.6523059E+03
 5.9802499E+00  1.6512786E+03
 6.0023580E+00  1.6513577E+03
 6.0244660E+00  1.6520015E+03
 6.0465741E+00  1.6532877E+03
 6.0686827E+00  1.6544088E+03
 6.0907907E+00  1.6541853E+03
 6.1128988E+00  1.6517676E+03
 6.1350069E+00  1.6484443E+03
 6.1571150E+00  1.6467560E+03
 6.1792231E+00  1.6467124E+03
 6.2013311E+00  1.6469385E+03
 6.2234392E+00  1.6477578E+03
 6.2455473E+00  1.6477864E+03
 6.2676558E+00  1.6473549E+03
 6.2897639E+00  1.6475103E+03
 6.3118720E+00  1.6476295E+03
 6.3339801E+00  1.6481794E+03
 6.3560882E+00  1.6465945E+03
 6.3781962E+00  1.6444103E+03
 6.4003043E+00  1.6424895E+03
 6.4224124E+00  1.6414211E+03
 6.4445205E+00  1.6412948E+03
 6.4666290E+00  1.6414589E+03
 6.4887371E+00  1.6409691E+03
 6.5108452E+00  1.6402698E+03
 6.5329533E+00  1.6368223E+03
 6.5550613E+00  1.6350146E+03
 6.5771694E+00  1.6361084E+03
 6.5992775E+00  1.6355010E+03
 6.6213856E+00  1.6361055E+03
 6.6434941E+00  1.6365347E+03
 6.6656022E+00  1.6354280E+03
 6.6877103E+00  1.6345311E+03
 6.7098184E+00  1.6339133E+03
 6.7319264E+00  1.6335679E+03
 6.7540345E+00  1.6317566E+03
 6.7761426E+00  1.6301234E+03
 6.7982507E+00  1.6283417E+03
 6.8203588E+00  1.6255345E+03
 6.8424673E+00  1.6248911E+03
 6.8645754E+00  1.6270291E+03
 6.8866835E+00  1.6267057E+03
 6.9087915E+00  1.6259712E+03
 6.9308996E+00  1.6256704E+03
 6.9530077E+00  1.6261982E+03
 6.9751158E+00  1.6270132E+03
 6.9972239E+00  1.6259773E+03
 7.0193319E+00  1.6270496E+03
 7.0414405E+00  1.6252692E+03
 7.0635486E+00  1.6235803E+03
 7.0856566E+00  1.6229053E+03
 7.1077647E+00  1.6228668E+03
 7.1298728E+00  1.6224285E+03
 7.1519809E+00  1.6214294E+03
 7.1740890E+00  1.6205061E+03
 7.1961970E+00  1.6188730E+03
 7.2183056E+00  1.6175533E+03
 7.2404137E+00  1.6161190E+03
 7.2625217E+00  1.6148519E+03
 7.2846298E+00  1.6142833E+03
 7.3067379E+00  1.6159457E+03
 7.3288460E+00  1.6156119E+03
 7.3509541E+00  1.6133218E+03
 7.3730621E+00  1.6131949E+03
 7.3951702E+00  1.6126917E+03
 7.4172788E+00  1.6119434E+03
 7.4393868E+00  1.6120791E+03
 7.4614949E+00  1.6103547E+03
 7.4836030E+00  1.6101168E+03
 7.5057111E+00  1.6086843E+03
 7.5278192E+00  1.6081394E+03
 7.5499272E+00  1.6093584E+03
 7.5720353E+00  1.6104326E+03
 7.5941434E+00  1.6102996E+03
 7.6162519E+00  1.6087057E+03
 7.6383600E+00  1.6069592E+03
 7.6604681E+00  1.6072263E+03
 7.6825762E+00  1.6062214E+03
 7.7046843E+00  1.6045349E+03
 7.7267923E+00  1.6045802E+03
 7.7489004E+00  1.6042791E+03
 7.7710085E+00  1.6038713E+03
 7.7931170E+00  1.6031367E+03
 7.8152251E+00  1.6036404E+03
 7.8373332E+00  1.6038873E+03
 7.8594413E+00  1.6028861E+03
 7.8815494E+00  1.6028606E+03
 7.9036574E+00  1.6029635E+03
 7.9257655E+00  1.6020787E+03
 7.9478736E+00  1.6003398E+03
 7.9699817E+00  1.6011929E+03
 7.9920902E+00  1.6024014E+03
 8.0141983E+00  1.6027872E+03
 8.0363064E+00  1.6019808E+03
 8.0584145E+00  1.6018374E+03
 8.0805225E+00  1.6021034E+03
 8.1026306E+00  1.6005623E+03
 8.1247387E+00  1.5985592E+03
 8.1468468E+00  1.6011621E+03
 8.1689548E+00  1.6022816E+03
 8.1910629E+00  1.6016219E+03
 8.2131710E+00  1.6000042E+03
 8.2352791E+00  1.5986505E+03
 8.2573872E+00  1.5997064E+03
 8.2794962E+00  1.5997556E+03
 8.3016043E+00  1.6007871E+03
 8.3237123E+00  1.6035425E+03
 8.3458204E+00  1.6050481E+03
 8.3679285E+00  1.6055205E+03
 8.3900366E+00  1.6075535E+03
 8.4121447E+00  1.6093761E+03
 8.4342527E+00  1.6111746E+03
 8.4563608E+00  1.6163292E+03
 8.4784689E+00  1.6201547E+03
 8.5005770E+00  1.6211140E+03
 8.5226851E+00  1.6193556E+03
 8.5447931E+00  1.6160920E+03
 8.5669012E+00  1.6128297E+03
 8.5890093E+00  1.6102697E+03
 8.6111174E+00  1.6080996E+03
 8.6332254E+00  1.6064941E+03
 8.6553335E+00  1.6046312E+03
 8.6774426E+00  1.6043414E+03
 8.6995506E+00  1.6028145E+03
 8.7216587E+00  1.6003944E+03
 8.7437668E+00  1.6004532E+03
 8.7658749E+00  1.6000812E+03
 8.7879829E+00  1.6015763E+03
 8.8100910E+00  1.6071448E+03
 8.8321991E+00  1.6128811E+03
 8.8543072E+00  1.6190522E+03
 8.8764153E+00  1.6231465E+03
 8.8985233E+00  1.6230969E+03
 8.9206314E+00  1.6238940E+03
 8.9427395E+00  1.6249524E+03
 8.9648476E+00  1.6275782E+03
 8.9869556E+00  1.6356372E+03
 9.0090637E+00  1.6489340E+03
 9.0311718E+00  1.6601963E+03
 9.0532808E+00  1.6581036E+03
 9.0753889E+00  1.6460143E+03
 9.0974970E+00  1.6320112E+03
 9.1196051E+00  1.6179081E+03
 9.1417131E+00  1.6089860E+03
 9.1638212E+00  1.6037518E+03
 9.1859293E+00  1.5996287E+03
 9.2080374E+00  1.5977288E+03
 9.2301455E+00  1.5976523E+03
 9.2522535E+00  1.5976672E+03
 9.2743616E+00  1.5978417E+03
 9.2964697E+00  1.5983385E+03
 9.3185778E+00  1.5979797E+03
 9.3406858E+00  1.5989113E+03
 9.3627939E+00  1.5985151E+03
 9.3849020E+00  1.5979606E+03
 9.4070101E+00  1.6003997E+03
 9.4291191E+00  1.6009618E+03
 9.4512272E+00  1.6008624E+03
 9.4733353E+00  1.6038079E+03
 9.4954433E+00  1.6116606E+03
 9.5175514E+00  1.6239528E+03
 9.5396595E+00  1.6294662E+03
 9.5617676E+00  1.6224692E+03
 9.5838757E+00  1.6146071E+03
 9.6059837E+00  1.6098645E+03
 9.6280918E+00  1.6084498E+03
 9.6501999E+00  1.6100269E+03
 9.6723080E+00  1.6119025E+03
 9.6944160E+00  1.6115469E+03
 9.7165241E+00  1.6132533E+03
 9.7386322E+00  1.6174706E+03
 9.7607403E+00  1.6198719E+03
 9.7828484E+00  1.6225217E+03
 9.8049564E+00  1.6272444E+03
 9.8270655E+00  1.6309625E+03
 9.8491735E+00  1.6330062E+03
 9.8712816E+00  1.6343182E+03
 9.8933897E+00  1.6332115E+03
 9.9154978E+00  1.6300454E+03
 9.9376059E+00  1.6279685E+03
 9.9597139E+00  1.6288413E+03
 9.9818220E+00  1.6301632E+03
 1.0003930E+01  1.6314556E+03
 1.0026038E+01  1.6318956E+03
 1.0048146E+01  1.6302760E+03
 1.0070254E+01  1.6283660E+03
 1.0092362E+01  1.6282643E+03
 1.0114470E+01  1.6293905E+03
 1.0136579E+01  1.6277393E+03
 1.0158687E+01  1.6242732E+03
 1.0180795E+01  1.6234758E+03
 1.0202904E+01  1.6246410E+03
 1.0225012E+01  1.6228422E+03
 1.0247120E+01  1.6227510E+03
 1.0269228E+01  1.6243582E+03
 1.0291336E+01  1.6245613E+03
 1.0313444E+01  1.6230593E+03
 1.0335552E+01  1.6246594E+03
 1.0357660E+01  1.6256606E+03
 1.0379768E+01  1.6262512E+03
 1.0401876E+01  1.6276364E+03
 1.0423985E+01  1.6291331E+03
 1.0446093E+01  1.6326506E+03
 1.0468201E+01  1.6357512E+03
 1.0490309E+01  1.6363844E+03
 1.0512417E+01  1.6401487E+03
 1.0534525E+01  1.6443263E+03
 1.0556633E+01  1.6493259E+03
 1.0578741E+01  1.6563046E+03
 1.0600850E+01  1.6677799E+03
 1.0622958E+01  1.6801201E+03
 1.0645066E+01  1.6911958E+03
 1.0667174E+01  1.7060880E+03
 1.0689282E+01  1.7307932E+03
 1.0711390E+01  1.7662773E+03
 1.0733499E+01  1.8289047E+03
 1.0755607E+01  1.9738555E+03
 1.0777715E+01  2.1138772E+03
 1.0799823E+01  2.2617336E+03
 1.0821931E+01  2.3973638E+03
 1.0844039E+01  2.4667339E+03
 1.0866147E+01  2.4440376E+03
 1.0888255E+01  2.2997947E+03
 1.0910363E+01  2.1657705E+03
 1.0932471E+01  2.1103896E+03
 1.0954579E+01  2.0934890E+03
 1.0976688E+01  2.0743911E+03
 1.0998796E+01  2.0360172E+03
 1.1020905E+01  1.9806384E+03
 1.1043013E+01  1.9024330E+03
 1.1065121E+01  1.8266855E+03
 1.1087229E+01  1.7723490E+03
 1.1109337E+01  1.7351904E+03
 1.1131445E+01  1.7105977E+03
 1.1153553E+01  1.6953179E+03
 1.1175661E+01  1.6852423E+03
 1.1197769E+01  1.6785865E+03
 1.1219877E+01  1.6763480E+03
 1.1241985E+01  1.6751057E+03
 1.1264093E+01  1.6743774E+03
 1.1286201E+01  1.6744384E+03
 1.1308310E+01  1.6736085E+03
 1.1330418E+01  1.6744675E+03
 1.1352527E+01  1.6762975E+03
 1.1374635E+01  1.6786119E+03
 1.1396743E+01  1.6818320E+03
 1.1418851E+01  1.6855669E+03
 1.1440959E+01  1.6899681E+03
 1.1463067E+01  1.6937183E+03
 1.1485175E+01  1.6973148E+03
 1.1507283E+01  1.7023276E+03
 1.1529391E+01  1.7090212E+03
 1.1551499E+01  1.7173400E+03
 1.1573607E+01  1.7250341E+03
 1.1595716E+01  1.7326996E+03
 1.1617824E+01  1.7374198E+03
 1.1639932E+01  1.7394102E+03
 1.1662040E+01  1.7385311E+03
 1.1684148E+01  1.7374823E+03
 1.1706256E+01  1.7332655E+03
 1.1728364E+01  1.7279209E+03
 1.1750473E+01  1.7255083E+03
 1.1772581E+01  1.7203817E+03
 1.1794689E+01  1.7116002E+03
 1.1816797E+01  1.7037279E+03
 1.1838905E+01  1.6973013E+03
 1.1861013E+01  1.6927118E+03
 1.1883121E+01  1.6885521E+03
 1.1905230E+01  1.6866438E+03
 1.1927338E+01  1.6868185E+03
 1.1949446E+01  1.6872408E+03
 1.1971554E+01  1.6896807E+03
 1.1993662E+01  1.6909749E+03
 1.2015770E+01  1.6917726E+03
 1.2037878E+01  1.6923879E+03
 1.2059986E+01  1.6933940E+03
 1.2082094E+01  1.6943406E+03
 1.2104202E+01  1.6975339E+03
 1.2126311E+01  1.7021742E+03
 1.2148419E+01  1.7082747E+03
 1.2170527E+01  1.7132545E+03
 1.2192636E+01  1.7193104E+03
 1.2214744E+01  1.7266805E+03
 1.2236852E+01  1.7356237E+03
 1.2258960E+01  1.7403024E+03
 1.2281068E+01  1.7437815E+03
 1.2303176E+01  1.7487313E+03
 1.2325284E+01  1.7539396E+03
 1.2347392E+01  1.7627870E+03
 1.2369500E+01  1.7782631E+03
 1.2391608E+01  1.8060398E+03
 1.2413716E+01  1.8459341E+03
 1.2435824E+01  1.8917969E+03
 1.2457932E+01  1.9410511E+03
 1.2480041E+01  2.0056534E+03
 1.2502149E+01  2.1093813E+03
 1.2524258E+01  2.2818054E+03
 1.2546366E+01  2.4853186E+03
 1.2568474E+01  2.6165024E+03
 1.2590582E+01  2.6314131E+03
 1.2612690E+01  2.5728452E+03
 1.2634798E+01  2.4119111E+03
 1.2656906E+01  2.1963228E+03
 1.2679014E+01  2.0011072E+03
 1.2701122E+01  1.8827533E+03
 1.2723230E+01  1.8048478E+03
 1.2745338E+01  1.7582622E+03
 1.2767447E+01  1.7311552E+03
 1.2789555E+01  1.7161360E+03
 1.2811663E+01  1.7071409E+03
 1.2833771E+01  1.7011104E+03
 1.2855879E+01  1.6971125E+03
 1.2877987E+01  1.6941949E+03
 1.2900096E+01  1.6902473E+03
 1.2922204E+01  1.6873174E+03
 1.2944312E+01  1.6855537E+03
 1.2966420E+01  1.6847390E+03
 1.2988528E+01  1.6852786E+03
 1.3010636E+01  1.6846721E+03
 1.3032744E+01  1.6831617E+03
 1.3054852E+01  1.6820527E+03
 1.3076961E+01  1.6801412E+03
 1.3099069E+01  1.6781558E+03
 1.3121177E+01  1.6774586E+03
 1.3143285E+01  1.6769611E+03
 1.3165393E+01  1.6759894E+03
 1.3187501E+01  1.6745411E+03
 1.3209609E+01  1.6746554E+03
 1.3231717E+01  1.6738812E+03
 1.3253825E+01  1.6730110E+03
 1.3275933E+01  1.6742335E+03
 1.3298042E+01  1.6732040E+03
 1.3320150E+01  1.6717070E+03
 1.3342258E+01  1.6710277E+03
 1.3364367E+01  1.6711328E+03
 1.3386475E+01  1.6726642E+03
 1.3408583E+01  1.6730696E+03
 1.3430691E+01  1.6734114E+03
 1.3452799E+01  1.6744229E+03
 1.3474907E+01  1.6745000E+03
 1.3497015E+01  1.6762311E+03
 1.3519123E+01  1.6778004E+03
 1.3541231E+01  1.6783174E+03
 1.3563339E+01  1.6777142E+03
 1.3585447E+01  1.6784535E+03
 1.3607555E+01  1.6798606E+03
 1.3629663E+01  1.6794757E+03
 1.3651772E+01  1.6792723E+03
 1.3673881E+01  1.6785642E+03
 1.3695989E+01  1.6780277E+03
 1.3718097E+01  1.6777579E+03
 1.3740205E+01  1.6787441E+03
 1.3762313E+01  1.6794989E+03
 1.3784421E+01  1.6790629E+03
 1.3806529E+01  1.6796985E+03
 1.3828637E+01  1.6805050E+03
 1.3850745E+01  1.6797081E+03
 1.3872853E+01  1.6790648E+03
 1.3894961E+01  1.6808673E+03
 1.3917069E+01  1.6819744E+03
 1.3939178E+01  1.6820398E+03
 1.3961286E+01  1.6838290E+03
 1.3983394E+01  1.6879061E+03
 1.4005502E+01  1.6917427E+03
 1.4027610E+01  1.6947137E+03
 1.4049719E+01  1.6975449E+03
 1.4071827E+01  1.6984843E+03
 1.4093935E+01  1.6976353E+03
 1.4116043E+01  1.6977917E+03
 1.4138151E+01  1.6980682E+03
 1.4160259E+01  1.6976902E+03
 1.4182367E+01  1.6974465E+03
 1.4204475E+01  1.6980511E+03
 1.4226583E+01  1.6962101E+03
 1.4248692E+01  1.6935410E+03
 1.4270800E+01  1.6932827E+03
 1.4292908E+01  1.6924377E+03
 1.4315016E+01  1.6902502E+03
 1.4337124E+01  1.6888347E+03
 1.4359232E+01  1.6888804E+03
 1.4381340E+01  1.6883806E+03
 1.4403448E+01  1.6895227E+03
 1.4425556E+01  1.6904620E+03
 1.4447665E+01  1.6902413E+03
 1.4469773E+01  1.6903027E+03
 1.4491881E+01  1.6917458E+03
 1.4513989E+01  1.6924434E+03
 1.4536098E+01  1.6937239E+03
 1.4558206E+01  1.6947640E+03
 1.4580314E+01  1.6942180E+03
 1.4602422E+01  1.6949204E+03
 1.4624530E+01  1.6960739E+03
 1.4646638E+01  1.6969147E+03
 1.4668746E+01  1.6963147E+03
 1.4690854E+01  1.6963837E+03
 1.4712962E+01  1.6974100E+03
 1.4735070E+01  1.6979508E+03
 1.4757178E+01  1.6980441E+03
 1.4779286E+01  1.6974272E+03
 1.4801394E+01  1.6974919E+03
 1.4823503E+01  1.6976467E+03
 1.4845612E+01  1.6979929E+03
 1.4867720E+01  1.6982471E+03
 1.4889828E+01  1.6989968E+03
 1.4911936E+01  1.7000925E+03
 1.4934044E+01  1.7002144E+03
 1.4956152E+01  1.6999205E+03
 1.4978260E+01  1.6995663E+03
 1.5000368E+01  1.7003627E+03
 1.5022476E+01  1.7029910E+03
 1.5044584E+01  1.7041964E+03
 1.5066692E+01  1.7053613E+03
 1.5088800E+01  1.7069091E+03
 1.5110909E+01  1.7063667E+03
 1.5133017E+01  1.7061124E+03
 1.5155125E+01  1.7068693E+03
 1.5177233E+01  1.7074365E+03
 1.5199341E+01  1.7084014E+03
 1.5221450E+01  1.7103561E+03
 1.5243558E+01  1.7117908E+03
 1.5265666E+01  1.7133717E+03
 1.5287774E+01  1.7160594E+03
 1.5309882E+01  1.7187915E+03
 1.5331990E+01  1.7209374E+03
 1.5354098E+01  1.7228335E+03
 1.5376206E+01  1.7243365E+03
 1.5398314E+01  1.7253795E+03
 1.5420423E+01  1.7270400E+03
 1.5442531E+01  1.7272634E+03
 1.5464639E+01  1.7265892E+03
 1.5486747E+01  1.7263754E+03
 1.5508855E+01  1.7270349E+03
 1.5530963E+01  1.7260452E+03
 1.5553071E+01  1.7251057E+03
 1.5575179E+01  1.7260227E+03
 1.5597288E+01  1.7265151E+03
 1.5619396E+01  1.7279955E+03
 1.5641504E+01  1.7295721E+03
 1.5663612E+01  1.7300209E+03
 1.5685720E+01  1.7297264E+03
 1.5707829E+01  1.7312535E+03
 1.5729937E+01  1.7328698E+03
 1.5752045E+01  1.7319076E+03
 1.5774153E+01  1.7310874E+03
 1.5796261E+01  1.7293850E+03
 1.5818369E+01  1.7292616E+03
 1.5840477E+01  1.7305863E+03
 1.5862585E+01  1.7316736E+03
 1.5884693E+01  1.7315221E+03
 1.5906801E+01  1.7300217E+03
 1.5928909E+01  1.7300664E+03
 1.5951017E+01  1.7286548E+03
 1.5973126E+01  1.7266445E+03
 1.5995234E+01  1.7248987E+03
 1.6017342E+01  1.7242249E+03
 1.6039450E+01  1.7233052E+03
 1.6061558E+01  1.7238036E+03
 1.6083666E+01  1.7239547E+03
 1.6105774E+01  1.7230731E+03
 1.6127882E+01  1.7223867E+03
 1.6149990E+01  1.7218138E+03
 1.6172100E+01  1.7224513E+03
 1.6194208E+01  1.7217437E+03
 1.6216316E+01  1.7214711E+03
 1.6238424E+01  1.7227310E+03
 1.6260532E+01  1.7221075E+03
 1.6282640E+01  1.7218553E+03
 1.6304749E+01  1.7216099E+03
 1.6326857E+01  1.7205223E+03
 1.6348965E+01  1.7198855E+03
 1.6371073E+01  1.7202395E+03
 1.6393181E+01  1.7197981E+03
 1.6415289E+01  1.7196158E+03
 1.6437397E+01  1.7192543E+03
 1.6459505E+01  1.7179764E+03
 1.6481613E+01  1.7178341E+03
 1.6503721E+01  1.7187560E+03
 1.6525829E+01  1.7181459E+03
 1.6547937E+01  1.7180242E+03
 1.6570045E+01  1.7176885E+03
 1.6592154E+01  1.7175784E+03
 1.6614262E+01  1.7176711E+03
 1.6636370E+01  1.7172146E+03
 1.6658478E+01  1.7161528E+03
 1.6680586E+01  1.7151166E+03
 1.6702694E+01  1.7153804E+03
 1.6724802E+01  1.7164086E+03
 1.6746910E+01  1.7165142E+03
 1.6769018E+01  1.7163953E+03
 1.6791126E+01  1.7181470E+03
 1.6813234E+01  1.7174822E+03
 1.6835342E+01  1.7157500E+03
 1.6857450E+01  1.7162781E+03
 1.6879559E+01  1.7185784E+03
 1.6901667E+01  1.7217206E+03
 1.6923775E+01  1.7242997E+03
 1.6945885E+01  1.7294856E+03
 1.6967993E+01  1.7369890E+03
 1.6990101E+01  1.7462855E+03
 1.7012209E+01  1.7560361E+03
 1.7034317E+01  1.7644301E+03
 1.7056425E+01  1.7704403E+03
 1.7078533E+01  1.7734327E+03
 1.7100641E+01  1.7720345E+03
 1.7122749E+01  1.7670419E+03
 1.7144857E+01  1.7607086E+03
 1.7166965E+01  1.7530332E+03
 1.7189074E+01  1.7441823E+03
 1.7211182E+01  1.7360919E+03
 1.7233290E+01  1.7308359E+03
 1.7255398E+01  1.7277134E+03
 1.7277506E+01  1.7260927E+03
 1.7299614E+01  1.7247794E+03
 1.7321722E+01  1.7224843E+03
 1.7343830E+01  1.7194248E+03
 1.7365938E+01  1.7169336E+03
 1.7388046E+01  1.7149801E+03
 1.7410154E+01  1.7124681E+03
 1.7432262E+01  1.7119297E+03
 1.7454370E+01  1.7120632E+03
 1.7476479E+01  1.7125229E+03
 1.7498587E+01  1.7129746E+03
 1.7520695E+01  1.7152461E+03
 1.7542803E+01  1.7190898E+03
 1.7564911E+01  1.7213790E+03
 1.7587019E+01  1.7224086E+03
 1.7609127E+01  1.7258561E+03
 1.7631235E+01  1.7319907E+03
 1.7653343E+01  1.7390094E+03
 1.7675451E+01  1.7485975E+03
 1.7697559E+01  1.7630460E+03
 1.7719669E+01  1.7799652E+03
 1.7741777E+01  1.7974579E+03
 1.7763885E+01  1.8142334E+03
 1.7785994E+01  1.8306140E+03
 1.7808102E+01  1.8376588E+03
 1.7830210E+01  1.8302202E+03
 1.7852318E+01  1.8182965E+03
 1.7874426E+01  1.7978365E+03
 1.7896534E+01  1.7734437E+03
 1.7918642E+01  1.7557087E+03
 1.7940750E+01  1.7412676E+03
 1.7962858E+01  1.7283217E+03
 1.7984966E+01  1.7180717E+03
 1.8007074E+01  1.7131891E+03
 1.8029182E+01  1.7126658E+03
 1.8051291E+01  1.7122795E+03
 1.8073399E+01  1.7124889E+03
 1.8095507E+01  1.7136980E+03
 1.8117615E+01  1.7136423E+03
 1.8139723E+01  1.7114854E+03
 1.8161831E+01  1.7079998E+03
 1.8183939E+01  1.7030165E+03
 1.8206047E+01  1.6977837E+03
 1.8228155E+01  1.6911398E+03
 1.8250263E+01  1.6832073E+03
 1.8272371E+01  1.6754728E+03
 1.8294479E+01  1.6702522E+03
 1.8316587E+01  1.6658905E+03
 1.8338696E+01  1.6626835E+03
 1.8360804E+01  1.6587212E+03
 1.8382912E+01  1.6557754E+03
 1.8405020E+01  1.6531794E+03
 1.8427128E+01  1.6492144E+03
 1.8449236E+01  1.6456161E+03
 1.8471344E+01  1.6436112E+03
 1.8493454E+01  1.6411534E+03
 1.8515562E+01  1.6403083E+03
 1.8537670E+01  1.6378094E+03
 1.8559778E+01  1.6358448E+03
 1.8581886E+01  1.6346991E+03
 1.8603994E+01  1.6330488E+03
 1.8626102E+01  1.6316042E+03
 1.8648211E+01  1.6284401E+03
 1.8670319E+01  1.6261329E+03
 1.8692427E+01  1.6234850E+03
 1.8714535E+01  1.6208112E+03
 1.8736643E+01  1.6191421E+03
 1.8758751E+01  1.6170726E+03
 1.8780859E+01  1.6150066E+03
 1.8802967E+01  1.6140883E+03
 1.8825075E+01  1.6144497E+03
 1.8847183E+01  1.6151395E+03
 1.8869291E+01  1.6141533E+03
 1.8891399E+01  1.6108035E+03
 1.8913507E+01  1.6088193E+03
 1.8935616E+01  1.6065117E+03
 1.8957724E+01  1.6045986E+03
 1.8979832E+01  1.6030326E+03
 1.9001940E+01  1.6034512E+03
 1.9024048E+01  1.6033384E+03
 1.9046156E+01  1.6017396E+03
 1.9068264E+01  1.5996221E+03
 1.9090372E+01  1.5977711E+03
 1.9112480E+01  1.5971973E+03
 1.9134588E+01  1.5966251E+03
 1.9156696E+01  1.5950463E+03
 1.9178804E+01  1.5942961E+03
 1.9200912E+01  1.5935884E+03
 1.9223021E+01  1.5928777E+03
 1.9245131E+01  1.5900701E+03
 1.9267239E+01  1.5863779E+03
 1.9289347E+01  1.5827144E+03
 1.9311455E+01  1.5790618E+03
 1.9333563E+01  1.5749923E+03
 1.9355671E+01  1.5714232E+03
 1.9377779E+01  1.5675781E+03
 1.9399887E+01  1.5653098E+03
 1.9421995E+01  1.5628033E+03
 1.9444103E+01  1.5602883E+03
 1.9466211E+01  1.5593832E+03
 1.9488319E+01  1.5591316E+03
 1.9510427E+01  1.5575706E+03
 1.9532536E+01  1.5552052E+03
 1.9554644E+01  1.5529014E+03
 1.9576752E+01  1.5509714E+03
 1.9598860E+01  1.5491040E+03
 1.9620968E+01  1.5482513E+03
 1.9643076E+01  1.5482532E+03
 1.9665184E+01  1.5475077E+03
 1.9687292E+01  1.5471111E+03
 1.9709400E+01  1.5460156E+03
 1.9731508E+01  1.5441696E+03
 1.9753616E+01  1.5432643E+03
 1.9775724E+01  1.5410999E+03
 1.9797832E+01  1.5400953E+03
 1.9819941E+01  1.5390178E+03
 1.9842049E+01  1.5376932E+03
 1.9864157E+01  1.5358170E+03
 1.9886265E+01  1.5349974E+03
 1.9908373E+01  1.5345912E+03
 1.9930481E+01  1.5343230E+03
 1.9952589E+01  1.5331796E+03
 1.9974697E+01  1.5328735E+03
 1.9996805E+01  1.5330371E+03
 2.0018915E+01  1.5317050E+03
 2.0041023E+01  1.5303438E+03
 2.0063131E+01  1.5294114E+03
 2.0085239E+01  1.5286449E+03
 2.0107347E+01  1.5279473E+03
 2.0129456E+01  1.5274174E+03
 2.0151564E+01  1.5260640E+03
 2.0173672E+01  1.5245211E+03
 2.0195780E+01  1.5220140E+03
 2.0217888E+01  1.5201479E+03
 2.0239996E+01  1.5179304E+03
 2.0262104E+01  1.5146429E+03
 2.0284212E+01  1.5130096E+03
 2.0306320E+01  1.5115059E+03
 2.0328428E+01  1.5093021E+03
 2.0350536E+01  1.5077728E+03
 2.0372644E+01  1.5070488E+03
 2.0394753E+01  1.5052551E+03
 2.0416861E+01  1.5047180E+03
 2.0438969E+01  1.5043832E+03
 2.0461077E+01  1.5038562E+03
 2.0483185E+01  1.5042091E+03
 2.0505293E+01  1.5041698E+03
 2.0527401E+01  1.5048142E+03
 2.0549509E+01  1.5059166E+03
 2.0571617E+01  1.5072941E+03
 2.0593725E+01  1.5100199E+03
 2.0615833E+01  1.5129529E+03
 2.0637941E+01  1.5157389E+03
 2.0660049E+01  1.5194440E+03
 2.0682158E+01  1.5249580E+03
 2.0704266E+01  1.5316746E+03
 2.0726374E+01  1.5377782E+03
 2.0748482E+01  1.5443992E+03
 2.0770590E+01  1.5501631E+03
 2.0792700E+01  1.5562772E+03
 2.0814808E+01  1.5628112E+03
 2.0836916E+01  1.5709802E+03
 2.0859024E+01  1.5808386E+03
 2.0881132E+01  1.5903940E+03
 2.0903240E+01  1.5996260E+03
 2.0925348E+01  1.6044530E+03
 2.0947456E+01  1.6004344E+03
 2.0969564E+01  1.5903604E+03
 2.0991673E+01  1.5824077E+03
 2.1013781E+01  1.5749623E+03
 2.1035889E+01  1.5649061E+03
 2.1057997E+01  1.5541179E+03
 2.1080105E+01  1.5432300E+03
 2.1102213E+01  1.5332791E+03
 2.1124321E+01  1.5260581E+03
 2.1146429E+01  1.5194825E+03
 2.1168537E+01  1.5122521E+03
 2.1190645E+01  1.5034001E+03
 2.1212753E+01  1.4963727E+03
 2.1234861E+01  1.4895277E+03
 2.1256969E+01  1.4810994E+03
 2.1279078E+01  1.4738208E+03
 2.1301186E+01  1.4701466E+03
 2.1323294E+01  1.4654705E+03
 2.1345402E+01  1.4607152E+03
 2.1367510E+01  1.4579125E+03
 2.1389618E+01  1.4559939E+03
 2.1411726E+01  1.4529213E+03
 2.1433834E+01  1.4496006E+03
 2.1455942E+01  1.4477325E+03
 2.1478050E+01  1.4455106E+03
 2.1500158E+01  1.4430410E+03
 2.1522266E+01  1.4456804E+03
 2.1544374E+01  1.4633287E+03
 2.1566484E+01  1.4726084E+03
 2.1588593E+01  1.4436195E+03
 2.1610701E+01  1.4333298E+03
 2.1632809E+01  1.4325592E+03
 2.1654917E+01  1.4325161E+03
 2.1677025E+01  1.4304445E+03
 2.1699133E+01  1.4295482E+03
 2.1721241E+01  1.4286750E+03
 2.1743349E+01  1.4283278E+03
 2.1765457E+01  1.4277108E+03
 2.1787565E+01  1.4264060E+03
 2.1809673E+01  1.4241267E+03
 2.1831781E+01  1.4222985E+03
 2.1853889E+01  1.4211490E+03
 2.1875998E+01  1.4192710E+03
 2.1898106E+01  1.4168788E+03
 2.1920214E+01  1.4152578E+03
 2.1942322E+01  1.4145363E+03
 2.1964430E+01  1.4129954E+03
 2.1986538E+01  1.4117072E+03
 2.2008646E+01  1.4106372E+03
 2.2030754E+01  1.4092725E+03
 2.2052862E+01  1.4076959E+03
 2.2074970E+01  1.4060245E+03
 2.2097078E+01  1.4037178E+03
 2.2119186E+01  1.4023489E+03
 2.2141294E+01  1.4009651E+03
 2.2163403E+01  1.3994672E+03
 2.2185511E+01  1.3964609E+03
 2.2207619E+01  1.3932135E+03
 2.2229727E+01  1.3917385E+03
 2.2251835E+01  1.3900709E+03
 2.2273943E+01  1.3892266E+03
 2.2296051E+01  1.3869385E+03
 2.2318159E+01  1.3859161E+03
 2.2340269E+01  1.3837203E+03
 2.2362377E+01  1.3825464E+03
 2.2384485E+01  1.3815071E+03
 2.2406593E+01  1.3803230E+03
 2.2428701E+01  1.3778878E+03
 2.2450809E+01  1.3772695E+03
 2.2472918E+01  1.3767098E+03
 2.2495026E+01  1.3761641E+03
 2.2517134E+01  1.3758124E+03
 2.2539242E+01  1.3738047E+03
 2.2561350E+01  1.3719387E+03
 2.2583458E+01  1.3714746E+03
 2.2605566E+01  1.3702946E+03
 2.2627674E+01  1.3687540E+03
 2.2649782E+01  1.3685758E+03
 2.2671890E+01  1.3678209E+03
 2.2693998E+01  1.3662349E+03
 2.2716106E+01  1.3636814E+03
 2.2738214E+01  1.3621625E+03
 2.2760323E+01  1.3613545E+03
 2.2782431E+01  1.3593701E+03
 2.2804539E+01  1.3580903E+03
 2.2826647E+01  1.3580453E+03
 2.2848755E+01  1.3551029E+03
 2.2870863E+01  1.3541782E+03
 2.2892971E+01  1.3527395E+03
 2.2915079E+01  1.3501914E+03
 2.2937187E+01  1.3487670E+03
 2.2959295E+01  1.3483713E+03
 2.2981403E+01  1.3443467E+03
 2.3003511E+01  1.3437106E+03
 2.3025620E+01  1.3432062E+03
 2.3047728E+01  1.3419272E+03
 2.3069836E+01  1.3410890E+03
 2.3091946E+01  1.3401615E+03
 2.3114054E+01  1.3370123E+03
 2.3136162E+01  1.3122067E+03
 2.3158270E+01  1.2356965E+03
 2.3180378E+01  1.1647059E+03
 2.3202486E+01  1.1152198E+03
 2.3224594E+01  1.0854067E+03
 2.3246702E+01  1.0569386E+03
 2.3268810E+01  1.0257837E+03
 2.3290918E+01  9.9627240E+02
 2.3313026E+01  9.8821503E+02
 2.3335135E+01  9.7293896E+02
 2.3357243E+01  9.5686884E+02
 2.3379351E+01  9.3972772E+02
 2.3401459E+01  9.2561865E+02
 2.3423567E+01  9.0994360E+02
 2.3445675E+01  8.9582135E+02
 2.3467783E+01  8.8264319E+02
 2.3489891E+01  8.7030585E+02
 2.3511999E+01  8.6107031E+02
 2.3534107E+01  8.6164307E+02
 2.3556215E+01  8.5633356E+02
 2.3578323E+01  8.5169965E+02
 2.3600431E+01  8.4538385E+02
 2.3622540E+01  8.4052490E+02
 2.3644648E+01  8.3322162E+02
 2.3666756E+01  8.2886713E+02
 2.3688864E+01  8.2329987E+02
 2.3710972E+01  8.1915234E+02
 2.3733080E+01  8.1381525E+02
 2.3755188E+01  8.0947144E+02
 2.3777296E+01  8.0612964E+02
 2.3799404E+01  8.0529449E+02
 2.3821512E+01  8.0357733E+02
 2.3843620E+01  8.0151233E+02
 2.3865730E+01  8.0166632E+02
 2.3887838E+01  8.0078076E+02
 2.3909946E+01  8.0140588E+02
 2.3932055E+01  7.9970203E+02
 2.3954163E+01  7.9880554E+02
 2.3976271E+01  7.9772046E+02
 2.3998379E+01  7.9781525E+02
 2.4020487E+01  7.9632336E+02
 2.4042595E+01  7.9644708E+02
 2.4064703E+01  7.9225885E+02
 2.4086811E+01  7.9064563E+02
 2.4108919E+01  7.8672748E+02
 2.4131027E+01  7.8113757E+02
 2.4153135E+01  7.7642175E+02
 2.4175243E+01  7.6794135E+02
 2.4197351E+01  7.5989587E+02
 2.4219460E+01  7.5169769E+02
 2.4241568E+01  7.4102576E+02
 2.4263676E+01  7.3176288E+02
 2.4285784E+01  7.2151489E+02
 2.4307892E+01  7.0913660E+02
 2.4330000E+01  6.9707751E+02
 2.4352108E+01  6.8364636E+02
 2.4374216E+01  6.6868719E+02
 2.4396324E+01  6.5338483E+02
 2.4418432E+01  6.3745062E+02
 2.4440540E+01  6.2762201E+02
 2.4462648E+01  6.1160938E+02
 2.4484756E+01  5.9136139E+02
 2.4506865E+01  5.7387738E+02
 2.4528973E+01  5.4806799E+02
 2.4551081E+01  5.2891821E+02
 2.4573189E+01  4.9407321E+02
 2.4595297E+01  4.6196014E+02
 2.4617405E+01  4.2310095E+02
 2.4639515E+01  3.9693903E+02
 2.4661623E+01  3.6615497E+02
 2.4683731E+01  3.2615042E+02
 2.4705839E+01  2.7478677E+02
 2.4727947E+01  2.0924403E+02
 2.4750055E+01  1.0507187E+02
 2.4772163E+01  1.8283697E+01
 2.4794271E+01  2.9168777E-02
 2.4816380E+01  0.0000000E+00
 2.4838488E+01  0.0000000E+00
 2.4860596E+01  0.0000000E+00
 2.4882704E+01  0.0000000E+00
 2.4904812E+01  0.0000000E+00
 2.4926920E+01  0.0000000E+00
 2.4949028E+01  0.0000000E+00
 2.4971136E+01  0.0000000E+00
 2.4993244E+01  0.0000000E+00
 2.5015352E+01  0.0000000E+00
 2.5037460E+01  0.0000000E+00
 2.5059568E+01  0.0000000E+00
 2.5081676E+01  0.0000000E+00
 2.5103785E+01  0.0000000E+00
 2.5125893E+01  0.0000000E+00
 2.5148001E+01  0.0000000E+00
 2.5170109E+01  0.0000000E+00
 2.5192217E+01  0.0000000E+00
 2.5214325E+01  0.0000000E+00
 2.5236433E+01  0.0000000E+00
 2.5258541E+01  0.0000000E+00
 2.5280649E+01  0.0000000E+00
 2.5302757E+01  0.0000000E+00
 2.5324865E+01  0.0000000E+00
 2.5346973E+01  0.0000000E+00
 2.5369081E+01  0.0000000E+00
 2.5391190E+01  0.0000000E+00
 2.5413300E+01  0.0000000E+00
 2.5435408E+01  0.0000000E+00
 2.5457516E+01  0.0000000E+00
 2.5479624E+01  0.0000000E+00
 2.5501732E+01  0.0000000E+00
 2.5523840E+01  0.0000000E+00
 2.5545948E+01  0.0000000E+00
 2.5568056E+01  0.0000000E+00
 2.5590164E+01  0.0000000E+00
 2.5612272E+01  0.0000000E+00
 2.5634380E+01  0.0000000E+00
 2.5656488E+01  0.0000000E+00
 2.5678596E+01  0.0000000E+00
 2.5700705E+01  0.0000000E+00
 2.5722813E+01  0.0000000E+00
 2.5744921E+01  0.0000000E+00
 2.5767029E+01  0.0000000E+00
 2.5789137E+01  0.0000000E+00
 2.5811245E+01  0.0000000E+00
 2.5833353E+01  0.0000000E+00
 2.5855461E+01  0.0000000E+00
 2.5877569E+01  0.0000000E+00
 2.5899677E+01  0.0000000E+00
 2.5921785E+01  0.0000000E+00
 2.5943893E+01  0.0000000E+00
 2.5966002E+01  0.0000000E+00
 2.5988110E+01  0.0000000E+00
 2.6010218E+01  0.0000000E+00
 2.6032326E+01  0.0000000E+00
 2.6054434E+01  0.0000000E+00
 2.6076542E+01  0.0000000E+00
 2.6098650E+01  0.0000000E+00
 2.6120758E+01  0.0000000E+00
 2.6142866E+01  0.0000000E+00
 2.6164974E+01  0.0000000E+00
 2.6187084E+01  0.0000000E+00
 2.6209192E+01  0.0000000E+00
 2.6231300E+01  0.0000000E+00
 2.6253408E+01  0.0000000E+00
 2.6275517E+01  0.0000000E+00
 2.6297625E+01  0.0000000E+00
 2.6319733E+01  0.0000000E+00
 2.6341841E+01  0.0000000E+00
 2.6363949E+01  0.0000000E+00
 2.6386057E+01  0.0000000E+00
 2.6408165E+01  0.0000000E+00
 2.6430273E+01  0.0000000E+00
 2.6452381E+01  0.0000000E+00
 2.6474489E+01  0.0000000E+00
 2.6496597E+01  0.0000000E+00
 2.6518705E+01  0.0000000E+00
 2.6540813E+01  0.0000000E+00
 2.6562922E+01  0.0000000E+00
 2.6585030E+01  0.0000000E+00
 2.6607138E+01  0.0000000E+00
 2.6629246E+01  0.0000000E+00
 2.6651354E+01  0.0000000E+00
 2.6673462E+01  0.0000000E+00
 2.6695570E+01  0.0000000E+00
 2.6717678E+01  0.0000000E+00
 2.6739786E+01  0.0000000E+00
 2.6761894E+01  0.0000000E+00
 2.6784002E+01  0.0000000E+00
 2.6806110E+01  0.0000000E+00
 2.6828218E+01  0.0000000E+00
 2.6850327E+01  0.0000000E+00
 2.6872435E+01  0.0000000E+00
 2.6894543E+01  0.0000000E+00
 2.6916651E+01  0.0000000E+00
 2.6938761E+01  0.0000000E+00
 2.6960869E+01  0.0000000E+00
 2.6982977E+01  0.0000000E+00
 2.7005085E+01  0.0000000E+00
 2.7027193E+01  0.0000000E+00
 2.7049301E+01  0.0000000E+00
 2.7071409E+01  0.0000000E+00
 2.7093517E+01  0.0000000E+00
 2.7115625E+01  0.0000000E+00
 2.7137733E+01  0.0000000E+00
 2.7159842E+01  0.0000000E+00
 2.7181950E+01  0.0000000E+00
 2.7204058E+01  0.0000000E+00
 2.7226166E+01  0.0000000E+00
 2.7248274E+01  0.0000000E+00
 2.7270382E+01  0.0000000E+00
 2.7292490E+01  0.0000000E+00
 2.7314598E+01  0.0000000E+00
 2.7336706E+01  0.0000000E+00
 2.7358814E+01  0.0000000E+00
 2.7380922E+01  0.0000000E+00
 2.7403030E+01  0.0000000E+00
 2.7425138E+01  0.0000000E+00
 2.7447247E+01  0.0000000E+00
 2.7469355E+01  0.0000000E+00
 2.7491463E+01  0.0000000E+00
 2.7513571E+01  0.0000000E+00
 2.7535679E+01  0.0000000E+00
 2.7557787E+01  0.0000000E+00
 2.7579895E+01  0.0000000E+00
 2.7602003E+01  0.0000000E+00
 2.7624111E+01  0.0000000E+00
 2.7646219E+01  0.0000000E+00
 2.7668327E+01  0.0000000E+00
 2.7690435E+01  0.0000000E+00
 2.7712545E+01  0.0000000E+00
 2.7734653E+01  0.0000000E+00
 2.7756762E+01  0.0000000E+00
 2.7778870E+01  0.0000000E+00
 2.7800978E+01  0.0000000E+00
 2.7823086E+01  0.0000000E+00
 2.7845194E+01  0.0000000E+00
 2.7867302E+01  0.0000000E+00
 2.7889410E+01  0.0000000E+00
 2.7911518E+01  0.0000000E+00
 2.7933626E+01  0.0000000E+00
 2.7955734E+01  0.0000000E+00
 2.7977842E+01  0.0000000E+00
 2.7999950E+01  0.0000000E+00
 2.8022058E+01  0.0000000E+00
 2.8044167E+01  0.0000000E+00
 2.8066275E+01  0.0000000E+00
 2.8088383E+01  0.0000000E+00
 2.8110491E+01  0.0000000E+00
 2.8132599E+01  0.0000000E+00
 2.8154707E+01  0.0000000E+00
 2.8176815E+01  0.0000000E+00
 2.8198923E+01  0.0000000E+00
 2.8221031E+01  0.0000000E+00
 2.8243139E+01  0.0000000E+00
 2.8265247E+01  0.0000000E+00
 2.8287355E+01  0.0000000E+00
 2.8309464E+01  0.0000000E+00
 2.8331572E+01  0.0000000E+00
 2.8353680E+01  0.0000000E+00
 2.8375788E+01  0.0000000E+00
 2.8397896E+01  0.0000000E+00
 2.8420004E+01  0.0000000E+00
 2.8442112E+01  0.0000000E+00
 2.8464220E+01  0.0000000E+00
 2.8486330E+01  0.0000000E+00
 2.8508438E+01  0.0000000E+00
 2.8530546E+01  0.0000000E+00
 2.8552654E+01  0.0000000E+00
 2.8574762E+01  0.0000000E+00
 2.8596870E+01  0.0000000E+00
 2.8618979E+01  0.0000000E+00
 2.8641087E+01  0.0000000E+00
 2.8663195E+01  0.0000000E+00
 2.8685303E+01  0.0000000E+00
 2.8707411E+01  0.0000000E+00
 2.8729519E+01  0.0000000E+00
 2.8751627E+01  0.0000000E+00
 2.8773735E+01  0.0000000E+00
 2.8795843E+01  0.0000000E+00
 2.8817951E+01  0.0000000E+00
 2.8840059E+01  0.0000000E+00
 2.8862167E+01  0.0000000E+00
 2.8884275E+01  0.0000000E+00
 2.8906384E+01  0.0000000E+00
 2.8928492E+01  0.0000000E+00
 2.8950600E+01  0.0000000E+00
 2.8972708E+01  0.0000000E+00
 2.8994816E+01  0.0000000E+00
 2.9016924E+01  0.0000000E+00
 2.9039032E+01  0.0000000E+00
 2.9061140E+01  0.0000000E+00
 2.9083248E+01  0.0000000E+00
 2.9105356E+01  0.0000000E+00
 2.9127464E+01  0.0000000E+00
 2.9149572E+01  0.0000000E+00
 2.9171680E+01  0.0000000E+00
 2.9193789E+01  0.0000000E+00
 2.9215897E+01  0.0000000E+00
 2.9238005E+01  0.0000000E+00
 2.9260115E+01  0.0000000E+00
 2.9282223E+01  0.0000000E+00
 2.9304331E+01  0.0000000E+00
 2.9326439E+01  0.0000000E+00
 2.9348547E+01  0.0000000E+00
 2.9370655E+01  0.0000000E+00
 2.9392763E+01  0.0000000E+00
 2.9414871E+01  0.0000000E+00
 2.9436979E+01  0.0000000E+00
 2.9459087E+01  0.0000000E+00
 2.9481195E+01  0.0000000E+00
 2.9503304E+01  0.0000000E+00
 2.9525412E+01  0.0000000E+00
 2.9547520E+01  0.0000000E+00
 2.9569628E+01  0.0000000E+00
 2.9591736E+01  0.0000000E+00
 2.9613844E+01  0.0000000E+00
 2.9635952E+01  0.0000000E+00
 2.9658060E+01  0.0000000E+00
 2.9680168E+01  0.0000000E+00
 2.9702276E+01  0.0000000E+00
 2.9724384E+01  0.0000000E+00
 2.9746492E+01  0.0000000E+00
 2.9768600E+01  0.0000000E+00
 2.9790709E+01  0.0000000E+00
 2.9812817E+01  0.0000000E+00
 2.9834925E+01  0.0000000E+00
 2.9857033E+01  0.0000000E+00
 2.9879141E+01  0.0000000E+00
 2.9901249E+01  0.0000000E+00
 2.9923357E+01  0.0000000E+00
 2.9945465E+01  0.0000000E+00
 2.9967573E+01  0.0000000E+00
 2.9989681E+01  0.0000000E+00
 3.0011789E+01  0.0000000E+00
 3.0033899E+01  0.0000000E+00
 3.0056007E+01  0.0000000E+00
 3.0078115E+01  0.0000000E+00
 3.0100224E+01  0.0000000E+00
 3.0122332E+01  0.0000000E+00
 3.0144440E+01  0.0000000E+00
 3.0166548E+01  0.0000000E+00
 3.0188656E+01  0.0000000E+00
 3.0210764E+01  0.0000000E+00
 3.0232872E+01  0.0000000E+00
 3.0254980E+01  0.0000000E+00
 3.0277088E+01  0.0000000E+00
 3.0299196E+01  0.0000000E+00
 3.0321304E+01  0.0000000E+00
 3.0343412E+01  0.0000000E+00
 3.0365520E+01  0.0000000E+00
 3.0387629E+01  0.0000000E+00
 3.0409737E+01  0.0000000E+00
 3.0431845E+01  0.0000000E+00
 3.0453953E+01  0.0000000E+00
 3.0476061E+01  0.0000000E+00
 3.0498169E+01  0.0000000E+00
 3.0520277E+01  0.0000000E+00
 3.0542385E+01  0.0000000E+00
 3.0564493E+01  0.0000000E+00
 3.0586601E+01  0.0000000E+00
 3.0608709E+01  0.0000000E+00
 3.0630817E+01  0.0000000E+00
 3.0652925E+01  0.0000000E+00
 3.0675034E+01  0.0000000E+00
 3.0697142E+01  0.0000000E+00
 3.0719250E+01  0.0000000E+00
 3.0741358E+01  0.0000000E+00
 3.0763466E+01  0.0000000E+00
 3.0785574E+01  0.0000000E+00
 3.0807684E+01  0.0000000E+00
 3.0829792E+01  0.0000000E+00
 3.0851900E+01  0.0000000E+00
 3.0874008E+01  0.0000000E+00
 3.0896116E+01  0.0000000E+00
 3.0918224E+01  0.0000000E+00
 3.0940332E+01  0.0000000E+00
 3.0962440E+01  0.0000000E+00
 3.0984549E+01  0.0000000E+00
 3.1006657E+01  0.0000000E+00
 3.1028765E+01  0.0000000E+00
 3.1050873E+01  0.0000000E+00
 3.1072981E+01  0.0000000E+00
 3.1095089E+01  0.0000000E+00
 3.1117197E+01  0.0000000E+00
 3.1139305E+01  0.0000000E+00
 3.1161413E+01  0.0000000E+00
 3.1183521E+01  0.0000000E+00
 3.1205629E+01  0.0000000E+00
 3.1227737E+01  0.0000000E+00
 3.1249846E+01  0.0000000E+00
 3.1271954E+01  0.0000000E+00
 3.1294062E+01  0.0000000E+00
 3.1316170E+01  0.0000000E+00
 3.1338278E+01  0.0000000E+00
 3.1360386E+01  0.0000000E+00
 3.1382494E+01  0.0000000E+00
 3.1404602E+01  0.0000000E+00
 3.1426710E+01  0.0000000E+00
 3.1448818E+01  0.0000000E+00
 3.1470926E+01  0.0000000E+00
 3.1493034E+01  0.0000000E+00
 3.1515142E+01  0.0000000E+00
 3.1537251E+01  0.0000000E+00
 3.1559361E+01  0.0000000E+00
 3.1581469E+01  0.0000000E+00
 3.1603577E+01  0.0000000E+00
 3.1625685E+01  0.0000000E+00
 3.1647793E+01  0.0000000E+00
 3.1669901E+01  0.0000000E+00
 3.1692009E+01  0.0000000E+00
 3.1714117E+01  0.0000000E+00
 3.1736225E+01  0.0000000E+00
 3.1758333E+01  0.0000000E+00
 3.1780441E+01  0.0000000E+00
 3.1802549E+01  0.0000000E+00
 3.1824657E+01  0.0000000E+00
 3.1846766E+01  0.0000000E+00
 3.1868874E+01  0.0000000E+00
 3.1890982E+01  0.0000000E+00
 3.1913090E+01  0.0000000E+00
 3.1935198E+01  0.0000000E+00
 3.1957306E+01  0.0000000E+00
 3.1979414E+01  0.0000000E+00
 3.2001522E+01  0.0000000E+00
 3.2023632E+01  0.0000000E+00
 3.2045738E+01  0.0000000E+00
 3.2067848E+01  0.0000000E+00
 3.2089954E+01  0.0000000E+00
 3.2112064E+01  0.0000000E+00
 3.2134171E+01  0.0000000E+00
 3.2156281E+01  0.0000000E+00
 3.2178387E+01  0.0000000E+00
 3.2200497E+01  0.0000000E+00
 3.2222603E+01  0.0000000E+00
 3.2244713E+01  0.0000000E+00
 3.2266819E+01  0.0000000E+00
 3.2288929E+01  0.0000000E+00
 3.2311035E+01  0.0000000E+00
 3.2333145E+01  0.0000000E+00
 3.2355251E+01  0.0000000E+00
 3.2377361E+01  0.0000000E+00
 3.2399467E+01  0.0000000E+00
 3.2421577E+01  0.0000000E+00
 3.2443684E+01  0.0000000E+00
 3.2465794E+01  0.0000000E+00
 3.2487900E+01  0.0000000E+00
 3.2510010E+01  0.0000000E+00
 3.2532116E+01  0.0000000E+00
 3.2554226E+01  0.0000000E+00
 3.2576332E+01  0.0000000E+00
 3.2598442E+01  0.0000000E+00
 3.2620548E+01  0.0000000E+00
 3.2642658E+01  0.0000000E+00
 3.2664764E+01  0.0000000E+00
 3.2686874E+01  0.0000000E+00
 3.2708981E+01  0.0000000E+00
 3.2731091E+01  0.0000000E+00
