D:\DATA\UserData\CuiTian20190403\\CWH\BA\BA_12.tif: 2-theta Scan
2-Theta Angle (Degrees)
Intensity
       1481
 1.1054026E-02  4.9293591E+01
 3.3162076E-02  4.7935131E+01
 5.5270128E-02  4.7920704E+01
 7.7378176E-02  4.6451992E+01
 9.9486232E-02  4.3176174E+01
 1.2159428E-01  4.2215481E+01
 1.4370233E-01  4.1271435E+01
 1.6581038E-01  4.1507713E+01
 1.8791844E-01  4.0794285E+01
 2.1002649E-01  4.0663822E+01
 2.3213454E-01  4.0473160E+01
 2.5424260E-01  3.9783207E+01
 2.7635065E-01  3.9779758E+01
 2.9845870E-01  3.9933495E+01
 3.2056674E-01  4.0683731E+01
 3.4267479E-01  4.0201992E+01
 3.6478284E-01  4.0162540E+01
 3.8689089E-01  4.0337620E+01
 4.0899894E-01  4.0414886E+01
 4.3110698E-01  4.0904797E+01
 4.5321503E-01  4.0806435E+01
 4.7532311E-01  4.0699425E+01
 4.9743116E-01  4.0774506E+01
 5.1953918E-01  4.1279438E+01
 5.4164726E-01  4.1139561E+01
 5.6375527E-01  4.0764206E+01
 5.8586335E-01  4.0619400E+01
 6.0797143E-01  4.0906929E+01
 6.3007945E-01  4.0707592E+01
 6.5218753E-01  3.9860180E+01
 6.7429554E-01  3.9473106E+01
 6.9640362E-01  4.0287098E+01
 7.1851164E-01  4.1291901E+01
 7.4061972E-01  4.1085236E+01
 7.6272774E-01  4.0597961E+01
 7.8483582E-01  4.0446564E+01
 8.0694389E-01  4.0295479E+01
 8.2905191E-01  4.0526661E+01
 8.5115999E-01  3.9669895E+01
 8.7326801E-01  3.9912136E+01
 8.9537609E-01  4.0444729E+01
 9.1748410E-01  4.0657566E+01
 9.3959218E-01  4.0711552E+01
 9.6170020E-01  4.1042812E+01
 9.8380828E-01  4.0774483E+01
 1.0059164E+00  4.0510498E+01
 1.0280243E+00  4.0067196E+01
 1.0501324E+00  4.0149891E+01
 1.0722405E+00  4.0219769E+01
 1.0943485E+00  4.0010197E+01
 1.1164566E+00  3.9964417E+01
 1.1385646E+00  4.0318508E+01
 1.1606727E+00  4.0561802E+01
 1.1827807E+00  4.0443295E+01
 1.2048888E+00  4.1045715E+01
 1.2269968E+00  4.1752819E+01
 1.2491049E+00  4.1756538E+01
 1.2712129E+00  4.1687096E+01
 1.2933210E+00  4.1411728E+01
 1.3154291E+00  4.1585842E+01
 1.3375371E+00  4.1735104E+01
 1.3596451E+00  4.2020016E+01
 1.3817532E+00  4.2298729E+01
 1.4038613E+00  4.2144100E+01
 1.4259692E+00  4.1992279E+01
 1.4480773E+00  4.2313107E+01
 1.4701854E+00  4.2127930E+01
 1.4922935E+00  4.2703384E+01
 1.5144016E+00  4.2644352E+01
 1.5365095E+00  4.2551254E+01
 1.5586176E+00  4.3154922E+01
 1.5807257E+00  4.3604336E+01
 1.6028337E+00  4.3735222E+01
 1.6249417E+00  4.3864105E+01
 1.6470498E+00  4.4274883E+01
 1.6691579E+00  4.4979580E+01
 1.6912659E+00  4.5108826E+01
 1.7133739E+00  4.5189671E+01
 1.7354820E+00  4.6113022E+01
 1.7575901E+00  4.6797596E+01
 1.7796981E+00  4.7303188E+01
 1.8018062E+00  4.8198875E+01
 1.8239142E+00  4.9514732E+01
 1.8460222E+00  5.1641174E+01
 1.8681303E+00  5.5700394E+01
 1.8902384E+00  6.4415314E+01
 1.9123464E+00  8.2575966E+01
 1.9344544E+00  1.1330198E+02
 1.9565625E+00  1.5103528E+02
 1.9786706E+00  1.8910403E+02
 2.0007787E+00  2.2593881E+02
 2.0228868E+00  2.6098029E+02
 2.0449948E+00  2.9732263E+02
 2.0671027E+00  3.3191592E+02
 2.0892107E+00  3.7278241E+02
 2.1113188E+00  4.1678229E+02
 2.1334269E+00  4.6593060E+02
 2.1555350E+00  5.2120764E+02
 2.1776431E+00  5.7608002E+02
 2.1997511E+00  6.2101190E+02
 2.2218592E+00  6.5803235E+02
 2.2439673E+00  6.9049384E+02
 2.2660751E+00  7.2074060E+02
 2.2881832E+00  7.5098761E+02
 2.3102913E+00  7.7693231E+02
 2.3323994E+00  8.0145093E+02
 2.3545074E+00  8.2705853E+02
 2.3766155E+00  8.5226978E+02
 2.3987236E+00  8.7790790E+02
 2.4208317E+00  9.0528644E+02
 2.4429398E+00  9.2842822E+02
 2.4650476E+00  9.4936646E+02
 2.4871557E+00  9.7130737E+02
 2.5092638E+00  9.8951013E+02
 2.5313718E+00  1.0094794E+03
 2.5534799E+00  1.0303654E+03
 2.5755880E+00  1.0513475E+03
 2.5976961E+00  1.0693503E+03
 2.6198041E+00  1.0890870E+03
 2.6419122E+00  1.1083228E+03
 2.6640201E+00  1.1248339E+03
 2.6861281E+00  1.1414546E+03
 2.7082362E+00  1.1597607E+03
 2.7303443E+00  1.1781270E+03
 2.7524524E+00  1.1954237E+03
 2.7745605E+00  1.2103218E+03
 2.7966685E+00  1.2260443E+03
 2.8187766E+00  1.2413484E+03
 2.8408844E+00  1.2571516E+03
 2.8629925E+00  1.2733684E+03
 2.8851006E+00  1.2896096E+03
 2.9072087E+00  1.3064244E+03
 2.9293168E+00  1.3202036E+03
 2.9514248E+00  1.3331064E+03
 2.9735329E+00  1.3464602E+03
 2.9956410E+00  1.3613431E+03
 3.0177491E+00  1.3740636E+03
 3.0398569E+00  1.3853231E+03
 3.0619650E+00  1.3954633E+03
 3.0840731E+00  1.4049862E+03
 3.1061811E+00  1.4156770E+03
 3.1282892E+00  1.4260463E+03
 3.1503973E+00  1.4400486E+03
 3.1725054E+00  1.4517914E+03
 3.1946135E+00  1.4606715E+03
 3.2167215E+00  1.4695549E+03
 3.2388294E+00  1.4795752E+03
 3.2609375E+00  1.4888063E+03
 3.2830455E+00  1.4970193E+03
 3.3051536E+00  1.5065398E+03
 3.3272617E+00  1.5134283E+03
 3.3493698E+00  1.5203848E+03
 3.3714778E+00  1.5289342E+03
 3.3935859E+00  1.5359237E+03
 3.4156940E+00  1.5414609E+03
 3.4378018E+00  1.5512673E+03
 3.4599099E+00  1.5605803E+03
 3.4820180E+00  1.5690138E+03
 3.5041261E+00  1.5807689E+03
 3.5262341E+00  1.5901260E+03
 3.5483422E+00  1.5953209E+03
 3.5704503E+00  1.6004261E+03
 3.5925584E+00  1.6066884E+03
 3.6146665E+00  1.6167854E+03
 3.6367743E+00  1.6231382E+03
 3.6588824E+00  1.6275878E+03
 3.6809905E+00  1.6311809E+03
 3.7030985E+00  1.6370399E+03
 3.7252066E+00  1.6432767E+03
 3.7473147E+00  1.6476769E+03
 3.7694228E+00  1.6504287E+03
 3.7915308E+00  1.6550374E+03
 3.8136389E+00  1.6645933E+03
 3.8357468E+00  1.6712896E+03
 3.8578548E+00  1.6761090E+03
 3.8799629E+00  1.6809932E+03
 3.9020710E+00  1.6851908E+03
 3.9241791E+00  1.6868738E+03
 3.9462872E+00  1.6914379E+03
 3.9683952E+00  1.6933577E+03
 3.9905033E+00  1.6967585E+03
 4.0126114E+00  1.7036345E+03
 4.0347195E+00  1.7079894E+03
 4.0568275E+00  1.7137755E+03
 4.0789356E+00  1.7166183E+03
 4.1010437E+00  1.7179543E+03
 4.1231513E+00  1.7237747E+03
 4.1452594E+00  1.7282751E+03
 4.1673675E+00  1.7279382E+03
 4.1894755E+00  1.7289396E+03
 4.2115836E+00  1.7306558E+03
 4.2336917E+00  1.7366884E+03
 4.2557998E+00  1.7392732E+03
 4.2779078E+00  1.7381132E+03
 4.3000159E+00  1.7396171E+03
 4.3221240E+00  1.7438389E+03
 4.3442321E+00  1.7483068E+03
 4.3663402E+00  1.7501432E+03
 4.3884482E+00  1.7535155E+03
 4.4105563E+00  1.7578628E+03
 4.4326644E+00  1.7584946E+03
 4.4547725E+00  1.7603463E+03
 4.4768806E+00  1.7624354E+03
 4.4989886E+00  1.7629775E+03
 4.5210962E+00  1.7625396E+03
 4.5432043E+00  1.7643751E+03
 4.5653124E+00  1.7667554E+03
 4.5874205E+00  1.7657750E+03
 4.6095285E+00  1.7660353E+03
 4.6316366E+00  1.7668787E+03
 4.6537447E+00  1.7702803E+03
 4.6758528E+00  1.7720415E+03
 4.6979609E+00  1.7713560E+03
 4.7200689E+00  1.7711018E+03
 4.7421770E+00  1.7725653E+03
 4.7642851E+00  1.7745842E+03
 4.7863932E+00  1.7748076E+03
 4.8085012E+00  1.7750873E+03
 4.8306093E+00  1.7751421E+03
 4.8527174E+00  1.7755741E+03
 4.8748255E+00  1.7759772E+03
 4.8969331E+00  1.7776152E+03
 4.9190412E+00  1.7793212E+03
 4.9411492E+00  1.7797443E+03
 4.9632573E+00  1.7797410E+03
 4.9853654E+00  1.7795306E+03
 5.0074735E+00  1.7756202E+03
 5.0295815E+00  1.7772531E+03
 5.0516896E+00  1.7799841E+03
 5.0737977E+00  1.7803754E+03
 5.0959058E+00  1.7791246E+03
 5.1180139E+00  1.7798481E+03
 5.1401219E+00  1.7812086E+03
 5.1622300E+00  1.7818668E+03
 5.1843381E+00  1.7839116E+03
 5.2064462E+00  1.7847057E+03
 5.2285542E+00  1.7805504E+03
 5.2506623E+00  1.7779329E+03
 5.2727704E+00  1.7777003E+03
 5.2948780E+00  1.7763058E+03
 5.3169861E+00  1.7762311E+03
 5.3390942E+00  1.7761819E+03
 5.3612022E+00  1.7765789E+03
 5.3833103E+00  1.7778374E+03
 5.4054184E+00  1.7774099E+03
 5.4275265E+00  1.7770686E+03
 5.4496346E+00  1.7763867E+03
 5.4717426E+00  1.7751840E+03
 5.4938507E+00  1.7736848E+03
 5.5159588E+00  1.7736023E+03
 5.5380669E+00  1.7765790E+03
 5.5601749E+00  1.7773037E+03
 5.5822830E+00  1.7755634E+03
 5.6043911E+00  1.7732666E+03
 5.6264992E+00  1.7727485E+03
 5.6486073E+00  1.7709878E+03
 5.6707153E+00  1.7704341E+03
 5.6928229E+00  1.7699949E+03
 5.7149310E+00  1.7690372E+03
 5.7370391E+00  1.7687527E+03
 5.7591472E+00  1.7711870E+03
 5.7812552E+00  1.7710088E+03
 5.8033633E+00  1.7689905E+03
 5.8254714E+00  1.7680568E+03
 5.8475795E+00  1.7702527E+03
 5.8696876E+00  1.7704967E+03
 5.8917956E+00  1.7676536E+03
 5.9139037E+00  1.7656921E+03
 5.9360118E+00  1.7650004E+03
 5.9581199E+00  1.7653599E+03
 5.9802279E+00  1.7640033E+03
 6.0023360E+00  1.7623228E+03
 6.0244441E+00  1.7625081E+03
 6.0465522E+00  1.7624060E+03
 6.0686603E+00  1.7619457E+03
 6.0907679E+00  1.7613311E+03
 6.1128759E+00  1.7609824E+03
 6.1349840E+00  1.7594481E+03
 6.1570921E+00  1.7585905E+03
 6.1792002E+00  1.7577018E+03
 6.2013083E+00  1.7577953E+03
 6.2234163E+00  1.7580891E+03
 6.2455244E+00  1.7585234E+03
 6.2676325E+00  1.7594309E+03
 6.2897406E+00  1.7606281E+03
 6.3118486E+00  1.7588730E+03
 6.3339567E+00  1.7596237E+03
 6.3560648E+00  1.7602593E+03
 6.3781729E+00  1.7581714E+03
 6.4002810E+00  1.7558475E+03
 6.4223890E+00  1.7556229E+03
 6.4444971E+00  1.7550403E+03
 6.4666047E+00  1.7531995E+03
 6.4887128E+00  1.7515480E+03
 6.5108209E+00  1.7511721E+03
 6.5329289E+00  1.7498817E+03
 6.5550370E+00  1.7484829E+03
 6.5771451E+00  1.7481693E+03
 6.5992532E+00  1.7466005E+03
 6.6213613E+00  1.7471989E+03
 6.6434693E+00  1.7466191E+03
 6.6655774E+00  1.7443002E+03
 6.6876855E+00  1.7424811E+03
 6.7097936E+00  1.7428676E+03
 6.7319016E+00  1.7438693E+03
 6.7540097E+00  1.7444923E+03
 6.7761178E+00  1.7430955E+03
 6.7982259E+00  1.7416818E+03
 6.8203340E+00  1.7393779E+03
 6.8424420E+00  1.7394333E+03
 6.8645496E+00  1.7392084E+03
 6.8866577E+00  1.7394375E+03
 6.9087658E+00  1.7392908E+03
 6.9308739E+00  1.7383931E+03
 6.9529819E+00  1.7378977E+03
 6.9750900E+00  1.7381116E+03
 6.9971981E+00  1.7367673E+03
 7.0193062E+00  1.7354305E+03
 7.0414143E+00  1.7332635E+03
 7.0635223E+00  1.7318540E+03
 7.0856304E+00  1.7315084E+03
 7.1077385E+00  1.7290133E+03
 7.1298466E+00  1.7292784E+03
 7.1519547E+00  1.7305175E+03
 7.1740627E+00  1.7308418E+03
 7.1961708E+00  1.7303022E+03
 7.2182789E+00  1.7292396E+03
 7.2403870E+00  1.7283654E+03
 7.2624946E+00  1.7278562E+03
 7.2846026E+00  1.7257413E+03
 7.3067107E+00  1.7246699E+03
 7.3288188E+00  1.7253861E+03
 7.3509269E+00  1.7254379E+03
 7.3730350E+00  1.7243903E+03
 7.3951430E+00  1.7237811E+03
 7.4172511E+00  1.7225724E+03
 7.4393592E+00  1.7230754E+03
 7.4614673E+00  1.7212891E+03
 7.4835753E+00  1.7207386E+03
 7.5056834E+00  1.7200068E+03
 7.5277915E+00  1.7192303E+03
 7.5498996E+00  1.7185319E+03
 7.5720077E+00  1.7201200E+03
 7.5941157E+00  1.7214962E+03
 7.6162238E+00  1.7203008E+03
 7.6383314E+00  1.7192328E+03
 7.6604395E+00  1.7196758E+03
 7.6825476E+00  1.7183794E+03
 7.7046556E+00  1.7165319E+03
 7.7267637E+00  1.7162848E+03
 7.7488718E+00  1.7153502E+03
 7.7709799E+00  1.7149825E+03
 7.7930880E+00  1.7146522E+03
 7.8151960E+00  1.7145164E+03
 7.8373041E+00  1.7139608E+03
 7.8594122E+00  1.7139700E+03
 7.8815203E+00  1.7138525E+03
 7.9036283E+00  1.7128663E+03
 7.9257364E+00  1.7127273E+03
 7.9478445E+00  1.7113345E+03
 7.9699526E+00  1.7109496E+03
 7.9920607E+00  1.7111747E+03
 8.0141687E+00  1.7114659E+03
 8.0362768E+00  1.7112008E+03
 8.0583849E+00  1.7108510E+03
 8.0804930E+00  1.7102986E+03
 8.1026011E+00  1.7101503E+03
 8.1247091E+00  1.7123923E+03
 8.1468172E+00  1.7119628E+03
 8.1689253E+00  1.7101521E+03
 8.1910334E+00  1.7081174E+03
 8.2131414E+00  1.7074948E+03
 8.2352486E+00  1.7073472E+03
 8.2573566E+00  1.7087244E+03
 8.2794647E+00  1.7074689E+03
 8.3015728E+00  1.7064204E+03
 8.3236809E+00  1.7054248E+03
 8.3457890E+00  1.7079729E+03
 8.3678970E+00  1.7121215E+03
 8.3900051E+00  1.7147792E+03
 8.4121132E+00  1.7138041E+03
 8.4342213E+00  1.7138461E+03
 8.4563293E+00  1.7155062E+03
 8.4784374E+00  1.7190708E+03
 8.5005455E+00  1.7229325E+03
 8.5226536E+00  1.7271709E+03
 8.5447617E+00  1.7320219E+03
 8.5668697E+00  1.7351812E+03
 8.5889778E+00  1.7339670E+03
 8.6110859E+00  1.7293959E+03
 8.6331940E+00  1.7262421E+03
 8.6553020E+00  1.7243727E+03
 8.6774101E+00  1.7198877E+03
 8.6995182E+00  1.7158291E+03
 8.7216263E+00  1.7132197E+03
 8.7437344E+00  1.7110916E+03
 8.7658424E+00  1.7088557E+03
 8.7879505E+00  1.7095792E+03
 8.8100586E+00  1.7088752E+03
 8.8321667E+00  1.7096056E+03
 8.8542747E+00  1.7114548E+03
 8.8763828E+00  1.7155557E+03
 8.8984909E+00  1.7200381E+03
 8.9205990E+00  1.7240427E+03
 8.9427071E+00  1.7274271E+03
 8.9648151E+00  1.7316587E+03
 8.9869232E+00  1.7348527E+03
 9.0090303E+00  1.7357303E+03
 9.0311384E+00  1.7336289E+03
 9.0532465E+00  1.7309537E+03
 9.0753546E+00  1.7342479E+03
 9.0974627E+00  1.7422421E+03
 9.1195707E+00  1.7482139E+03
 9.1416788E+00  1.7480771E+03
 9.1637869E+00  1.7389653E+03
 9.1858950E+00  1.7278810E+03
 9.2080030E+00  1.7190002E+03
 9.2301111E+00  1.7130646E+03
 9.2522192E+00  1.7093696E+03
 9.2743273E+00  1.7068947E+03
 9.2964354E+00  1.7055531E+03
 9.3185434E+00  1.7054403E+03
 9.3406515E+00  1.7068352E+03
 9.3627596E+00  1.7072241E+03
 9.3848677E+00  1.7078777E+03
 9.4069757E+00  1.7095060E+03
 9.4290838E+00  1.7110161E+03
 9.4511919E+00  1.7138966E+03
 9.4733000E+00  1.7228317E+03
 9.4954081E+00  1.7500397E+03
 9.5175161E+00  1.7622147E+03
 9.5396242E+00  1.7476810E+03
 9.5617323E+00  1.7273129E+03
 9.5838404E+00  1.7203282E+03
 9.6059484E+00  1.7185183E+03
 9.6280565E+00  1.7172899E+03
 9.6501646E+00  1.7161334E+03
 9.6722727E+00  1.7149569E+03
 9.6943808E+00  1.7140056E+03
 9.7164888E+00  1.7146904E+03
 9.7385969E+00  1.7177800E+03
 9.7607050E+00  1.7192247E+03
 9.7828131E+00  1.7211614E+03
 9.8049202E+00  1.7245757E+03
 9.8270283E+00  1.7284252E+03
 9.8491364E+00  1.7313333E+03
 9.8712444E+00  1.7341372E+03
 9.8933525E+00  1.7379105E+03
 9.9154606E+00  1.7413718E+03
 9.9375687E+00  1.7447156E+03
 9.9596767E+00  1.7462598E+03
 9.9817848E+00  1.7455961E+03
 1.0003893E+01  1.7449631E+03
 1.0026001E+01  1.7438179E+03
 1.0048109E+01  1.7435646E+03
 1.0070217E+01  1.7440150E+03
 1.0092325E+01  1.7412537E+03
 1.0114433E+01  1.7377908E+03
 1.0136541E+01  1.7358572E+03
 1.0158649E+01  1.7337689E+03
 1.0180758E+01  1.7339362E+03
 1.0202866E+01  1.7330356E+03
 1.0224974E+01  1.7321410E+03
 1.0247082E+01  1.7315331E+03
 1.0269190E+01  1.7315162E+03
 1.0291298E+01  1.7319797E+03
 1.0313406E+01  1.7327472E+03
 1.0335514E+01  1.7350641E+03
 1.0357622E+01  1.7359635E+03
 1.0379730E+01  1.7350577E+03
 1.0401838E+01  1.7355056E+03
 1.0423946E+01  1.7371420E+03
 1.0446054E+01  1.7377032E+03
 1.0468163E+01  1.7384333E+03
 1.0490271E+01  1.7412035E+03
 1.0512379E+01  1.7433934E+03
 1.0534487E+01  1.7444617E+03
 1.0556595E+01  1.7497795E+03
 1.0578702E+01  1.7622197E+03
 1.0600810E+01  1.7726990E+03
 1.0622918E+01  1.7714573E+03
 1.0645026E+01  1.7664696E+03
 1.0667134E+01  1.7677235E+03
 1.0689242E+01  1.7735111E+03
 1.0711350E+01  1.7799900E+03
 1.0733459E+01  1.7871500E+03
 1.0755567E+01  1.7978464E+03
 1.0777675E+01  1.8134620E+03
 1.0799783E+01  1.8322772E+03
 1.0821891E+01  1.8548827E+03
 1.0843999E+01  1.8833953E+03
 1.0866107E+01  1.9285382E+03
 1.0888215E+01  1.9980065E+03
 1.0910323E+01  2.0854626E+03
 1.0932431E+01  2.1512949E+03
 1.0954539E+01  2.1930027E+03
 1.0976647E+01  2.2128247E+03
 1.0998755E+01  2.1930818E+03
 1.1020864E+01  2.1534553E+03
 1.1042972E+01  2.1104832E+03
 1.1065080E+01  2.0711870E+03
 1.1087188E+01  2.0378712E+03
 1.1109296E+01  2.0054829E+03
 1.1131404E+01  1.9684934E+03
 1.1153512E+01  1.9297131E+03
 1.1175620E+01  1.8911691E+03
 1.1197728E+01  1.8571624E+03
 1.1219836E+01  1.8297994E+03
 1.1241944E+01  1.8098472E+03
 1.1264052E+01  1.7983605E+03
 1.1286160E+01  1.7912239E+03
 1.1308269E+01  1.7865555E+03
 1.1330377E+01  1.7842483E+03
 1.1352485E+01  1.7806338E+03
 1.1374592E+01  1.7788177E+03
 1.1396700E+01  1.7802042E+03
 1.1418808E+01  1.7817104E+03
 1.1440916E+01  1.7817740E+03
 1.1463024E+01  1.7830980E+03
 1.1485132E+01  1.7859794E+03
 1.1507240E+01  1.7884375E+03
 1.1529348E+01  1.7917708E+03
 1.1551456E+01  1.7965815E+03
 1.1573565E+01  1.8002726E+03
 1.1595673E+01  1.8042524E+03
 1.1617781E+01  1.8103846E+03
 1.1639889E+01  1.8175660E+03
 1.1661997E+01  1.8258308E+03
 1.1684105E+01  1.8328818E+03
 1.1706213E+01  1.8356658E+03
 1.1728321E+01  1.8348712E+03
 1.1750429E+01  1.8316481E+03
 1.1772537E+01  1.8268971E+03
 1.1794645E+01  1.8228792E+03
 1.1816753E+01  1.8177461E+03
 1.1838861E+01  1.8115131E+03
 1.1860970E+01  1.8063392E+03
 1.1883078E+01  1.8013579E+03
 1.1905186E+01  1.7987906E+03
 1.1927294E+01  1.7952141E+03
 1.1949402E+01  1.7912261E+03
 1.1971510E+01  1.7902938E+03
 1.1993618E+01  1.7899397E+03
 1.2015726E+01  1.7899614E+03
 1.2037834E+01  1.7915984E+03
 1.2059942E+01  1.7929642E+03
 1.2082050E+01  1.7933398E+03
 1.2104158E+01  1.7947596E+03
 1.2126266E+01  1.7967853E+03
 1.2148374E+01  1.7977571E+03
 1.2170482E+01  1.8009342E+03
 1.2192590E+01  1.8046498E+03
 1.2214698E+01  1.8085300E+03
 1.2236806E+01  1.8137896E+03
 1.2258914E+01  1.8196216E+03
 1.2281022E+01  1.8256731E+03
 1.2303130E+01  1.8307570E+03
 1.2325238E+01  1.8325101E+03
 1.2347346E+01  1.8349005E+03
 1.2369454E+01  1.8364851E+03
 1.2391562E+01  1.8394032E+03
 1.2413671E+01  1.8420569E+03
 1.2435779E+01  1.8461610E+03
 1.2457887E+01  1.8530957E+03
 1.2479995E+01  1.8685928E+03
 1.2502103E+01  1.8930533E+03
 1.2524211E+01  1.9301575E+03
 1.2546319E+01  1.9775303E+03
 1.2568427E+01  2.0256979E+03
 1.2590535E+01  2.0818000E+03
 1.2612643E+01  2.1669058E+03
 1.2634751E+01  2.3007285E+03
 1.2656859E+01  2.4788052E+03
 1.2678967E+01  2.6695642E+03
 1.2701076E+01  2.7696858E+03
 1.2723184E+01  2.7166995E+03
 1.2745292E+01  2.5570342E+03
 1.2767400E+01  2.3748865E+03
 1.2789508E+01  2.2143840E+03
 1.2811616E+01  2.0858259E+03
 1.2833724E+01  1.9828860E+03
 1.2855832E+01  1.9130394E+03
 1.2877940E+01  1.8695531E+03
 1.2900048E+01  1.8441038E+03
 1.2922156E+01  1.8306223E+03
 1.2944263E+01  1.8221104E+03
 1.2966372E+01  1.8157623E+03
 1.2988480E+01  1.8133951E+03
 1.3010588E+01  1.8117667E+03
 1.3032696E+01  1.8094578E+03
 1.3054804E+01  1.8072639E+03
 1.3076912E+01  1.8037627E+03
 1.3099020E+01  1.8034325E+03
 1.3121128E+01  1.8041407E+03
 1.3143236E+01  1.8021221E+03
 1.3165344E+01  1.8019501E+03
 1.3187452E+01  1.8008837E+03
 1.3209560E+01  1.7983844E+03
 1.3231668E+01  1.7966532E+03
 1.3253777E+01  1.7956487E+03
 1.3275885E+01  1.7954149E+03
 1.3297993E+01  1.7941893E+03
 1.3320101E+01  1.7938914E+03
 1.3342209E+01  1.7935770E+03
 1.3364317E+01  1.7929055E+03
 1.3386425E+01  1.7934844E+03
 1.3408533E+01  1.7929204E+03
 1.3430641E+01  1.7932451E+03
 1.3452749E+01  1.7929779E+03
 1.3474857E+01  1.7916265E+03
 1.3496965E+01  1.7917786E+03
 1.3519073E+01  1.7921444E+03
 1.3541182E+01  1.7929576E+03
 1.3563290E+01  1.7928130E+03
 1.3585398E+01  1.7929441E+03
 1.3607506E+01  1.7930520E+03
 1.3629614E+01  1.7934384E+03
 1.3651722E+01  1.7941644E+03
 1.3673830E+01  1.7942451E+03
 1.3695938E+01  1.7943458E+03
 1.3718045E+01  1.7949227E+03
 1.3740153E+01  1.7968646E+03
 1.3762261E+01  1.7970854E+03
 1.3784369E+01  1.7971251E+03
 1.3806478E+01  1.7972141E+03
 1.3828586E+01  1.7968689E+03
 1.3850694E+01  1.7971545E+03
 1.3872802E+01  1.7979164E+03
 1.3894910E+01  1.7978604E+03
 1.3917018E+01  1.7980486E+03
 1.3939126E+01  1.7971066E+03
 1.3961234E+01  1.7973970E+03
 1.3983342E+01  1.7986292E+03
 1.4005450E+01  1.8000784E+03
 1.4027558E+01  1.8025457E+03
 1.4049666E+01  1.8046565E+03
 1.4071774E+01  1.8065905E+03
 1.4093883E+01  1.8083115E+03
 1.4115991E+01  1.8106053E+03
 1.4138099E+01  1.8134994E+03
 1.4160207E+01  1.8169031E+03
 1.4182315E+01  1.8214733E+03
 1.4204423E+01  1.8237109E+03
 1.4226531E+01  1.8255051E+03
 1.4248639E+01  1.8287395E+03
 1.4270747E+01  1.8288525E+03
 1.4292855E+01  1.8234873E+03
 1.4314963E+01  1.8172325E+03
 1.4337071E+01  1.8135444E+03
 1.4359179E+01  1.8127772E+03
 1.4381288E+01  1.8113485E+03
 1.4403396E+01  1.8102245E+03
 1.4425504E+01  1.8093235E+03
 1.4447612E+01  1.8099089E+03
 1.4469720E+01  1.8105391E+03
 1.4491827E+01  1.8111935E+03
 1.4513935E+01  1.8121669E+03
 1.4536043E+01  1.8121793E+03
 1.4558151E+01  1.8122866E+03
 1.4580259E+01  1.8111003E+03
 1.4602367E+01  1.8124161E+03
 1.4624475E+01  1.8137061E+03
 1.4646584E+01  1.8139008E+03
 1.4668692E+01  1.8147216E+03
 1.4690800E+01  1.8159446E+03
 1.4712908E+01  1.8171157E+03
 1.4735016E+01  1.8173774E+03
 1.4757124E+01  1.8166721E+03
 1.4779232E+01  1.8156493E+03
 1.4801340E+01  1.8166042E+03
 1.4823448E+01  1.8181467E+03
 1.4845556E+01  1.8197843E+03
 1.4867664E+01  1.8196198E+03
 1.4889772E+01  1.8195356E+03
 1.4911880E+01  1.8193246E+03
 1.4933989E+01  1.8187329E+03
 1.4956097E+01  1.8198746E+03
 1.4978205E+01  1.8205404E+03
 1.5000313E+01  1.8216801E+03
 1.5022421E+01  1.8234086E+03
 1.5044529E+01  1.8241052E+03
 1.5066637E+01  1.8248492E+03
 1.5088745E+01  1.8262330E+03
 1.5110853E+01  1.8270383E+03
 1.5132961E+01  1.8275804E+03
 1.5155069E+01  1.8273965E+03
 1.5177177E+01  1.8272406E+03
 1.5199286E+01  1.8270299E+03
 1.5221394E+01  1.8265741E+03
 1.5243502E+01  1.8264717E+03
 1.5265610E+01  1.8284197E+03
 1.5287717E+01  1.8305247E+03
 1.5309825E+01  1.8308381E+03
 1.5331933E+01  1.8319335E+03
 1.5354041E+01  1.8332804E+03
 1.5376149E+01  1.8345946E+03
 1.5398257E+01  1.8347676E+03
 1.5420365E+01  1.8361383E+03
 1.5442473E+01  1.8386169E+03
 1.5464581E+01  1.8413002E+03
 1.5486690E+01  1.8436785E+03
 1.5508798E+01  1.8463510E+03
 1.5530906E+01  1.8477146E+03
 1.5553014E+01  1.8486840E+03
 1.5575122E+01  1.8495272E+03
 1.5597230E+01  1.8487986E+03
 1.5619338E+01  1.8488540E+03
 1.5641446E+01  1.8494908E+03
 1.5663554E+01  1.8498610E+03
 1.5685662E+01  1.8495360E+03
 1.5707770E+01  1.8493555E+03
 1.5729878E+01  1.8499855E+03
 1.5751987E+01  1.8499437E+03
 1.5774095E+01  1.8502607E+03
 1.5796203E+01  1.8508975E+03
 1.5818311E+01  1.8517914E+03
 1.5840419E+01  1.8514897E+03
 1.5862527E+01  1.8518854E+03
 1.5884635E+01  1.8519917E+03
 1.5906743E+01  1.8522098E+03
 1.5928851E+01  1.8528024E+03
 1.5950959E+01  1.8520989E+03
 1.5973067E+01  1.8505861E+03
 1.5995175E+01  1.8487191E+03
 1.6017282E+01  1.8461835E+03
 1.6039391E+01  1.8452419E+03
 1.6061499E+01  1.8447087E+03
 1.6083607E+01  1.8435347E+03
 1.6105715E+01  1.8428230E+03
 1.6127823E+01  1.8421940E+03
 1.6149931E+01  1.8419482E+03
 1.6172039E+01  1.8409766E+03
 1.6194147E+01  1.8401743E+03
 1.6216255E+01  1.8392067E+03
 1.6238363E+01  1.8404191E+03
 1.6260471E+01  1.8406702E+03
 1.6282579E+01  1.8399603E+03
 1.6304688E+01  1.8402772E+03
 1.6326796E+01  1.8398962E+03
 1.6348904E+01  1.8392811E+03
 1.6371012E+01  1.8393014E+03
 1.6393120E+01  1.8387299E+03
 1.6415228E+01  1.8391206E+03
 1.6437336E+01  1.8401443E+03
 1.6459444E+01  1.8391674E+03
 1.6481552E+01  1.8385483E+03
 1.6503660E+01  1.8377798E+03
 1.6525768E+01  1.8373237E+03
 1.6547876E+01  1.8377439E+03
 1.6569984E+01  1.8370471E+03
 1.6592093E+01  1.8355677E+03
 1.6614201E+01  1.8355170E+03
 1.6636309E+01  1.8363063E+03
 1.6658417E+01  1.8371550E+03
 1.6680525E+01  1.8363184E+03
 1.6702633E+01  1.8348625E+03
 1.6724741E+01  1.8344294E+03
 1.6746849E+01  1.8335122E+03
 1.6768957E+01  1.8330470E+03
 1.6791065E+01  1.8331425E+03
 1.6813173E+01  1.8341033E+03
 1.6835281E+01  1.8349448E+03
 1.6857389E+01  1.8342441E+03
 1.6879498E+01  1.8335413E+03
 1.6901606E+01  1.8343292E+03
 1.6923714E+01  1.8358445E+03
 1.6945822E+01  1.8375889E+03
 1.6967930E+01  1.8422593E+03
 1.6990038E+01  1.8458971E+03
 1.7012146E+01  1.8509122E+03
 1.7034254E+01  1.8608093E+03
 1.7056362E+01  1.8716958E+03
 1.7078470E+01  1.8846289E+03
 1.7100578E+01  1.8981637E+03
 1.7122686E+01  1.9078409E+03
 1.7144794E+01  1.9123257E+03
 1.7166903E+01  1.9125757E+03
 1.7189011E+01  1.9080309E+03
 1.7211119E+01  1.8979922E+03
 1.7233225E+01  1.8874497E+03
 1.7255333E+01  1.8773276E+03
 1.7277441E+01  1.8685552E+03
 1.7299549E+01  1.8601464E+03
 1.7321657E+01  1.8536057E+03
 1.7343765E+01  1.8486569E+03
 1.7365873E+01  1.8442700E+03
 1.7387981E+01  1.8398706E+03
 1.7410089E+01  1.8354224E+03
 1.7432198E+01  1.8323210E+03
 1.7454306E+01  1.8294395E+03
 1.7476414E+01  1.8276337E+03
 1.7498522E+01  1.8253910E+03
 1.7520630E+01  1.8220264E+03
 1.7542738E+01  1.8221230E+03
 1.7564846E+01  1.8225165E+03
 1.7586954E+01  1.8231924E+03
 1.7609062E+01  1.8236489E+03
 1.7631170E+01  1.8227495E+03
 1.7653278E+01  1.8215151E+03
 1.7675386E+01  1.8211362E+03
 1.7697495E+01  1.8225880E+03
 1.7719603E+01  1.8247271E+03
 1.7741711E+01  1.8273683E+03
 1.7763819E+01  1.8302943E+03
 1.7785927E+01  1.8344061E+03
 1.7808035E+01  1.8418655E+03
 1.7830143E+01  1.8520281E+03
 1.7852251E+01  1.8624562E+03
 1.7874359E+01  1.8751812E+03
 1.7896467E+01  1.8896313E+03
 1.7918575E+01  1.9042616E+03
 1.7940683E+01  1.9140836E+03
 1.7962791E+01  1.9216881E+03
 1.7984900E+01  1.9308533E+03
 1.8007008E+01  1.9397007E+03
 1.8029116E+01  1.9439318E+03
 1.8051224E+01  1.9233276E+03
 1.8073332E+01  1.9002610E+03
 1.8095440E+01  1.8784059E+03
 1.8117548E+01  1.8587419E+03
 1.8139656E+01  1.8409154E+03
 1.8161764E+01  1.8272784E+03
 1.8183872E+01  1.8184370E+03
 1.8205980E+01  1.8135797E+03
 1.8228088E+01  1.8125183E+03
 1.8250196E+01  1.8138414E+03
 1.8272305E+01  1.8159012E+03
 1.8294413E+01  1.8155015E+03
 1.8316521E+01  1.8117550E+03
 1.8338629E+01  1.8087018E+03
 1.8360737E+01  1.8051887E+03
 1.8382845E+01  1.7985979E+03
 1.8404953E+01  1.7904813E+03
 1.8427061E+01  1.7827070E+03
 1.8449169E+01  1.7749521E+03
 1.8471277E+01  1.7703268E+03
 1.8493385E+01  1.7651471E+03
 1.8515493E+01  1.7606294E+03
 1.8537601E+01  1.7566902E+03
 1.8559710E+01  1.7531234E+03
 1.8581818E+01  1.7495824E+03
 1.8603926E+01  1.7466744E+03
 1.8626034E+01  1.7449216E+03
 1.8648142E+01  1.7424385E+03
 1.8670250E+01  1.7408682E+03
 1.8692358E+01  1.7390020E+03
 1.8714466E+01  1.7357914E+03
 1.8736574E+01  1.7332556E+03
 1.8758682E+01  1.7310164E+03
 1.8780790E+01  1.7295243E+03
 1.8802896E+01  1.7277979E+03
 1.8825005E+01  1.7260325E+03
 1.8847113E+01  1.7236470E+03
 1.8869221E+01  1.7207372E+03
 1.8891329E+01  1.7193751E+03
 1.8913437E+01  1.7176587E+03
 1.8935545E+01  1.7165227E+03
 1.8957653E+01  1.7152290E+03
 1.8979761E+01  1.7130303E+03
 1.9001869E+01  1.7110299E+03
 1.9023977E+01  1.7097018E+03
 1.9046085E+01  1.7086658E+03
 1.9068193E+01  1.7065699E+03
 1.9090302E+01  1.7026547E+03
 1.9112410E+01  1.7012144E+03
 1.9134518E+01  1.7005643E+03
 1.9156626E+01  1.6982998E+03
 1.9178734E+01  1.6967212E+03
 1.9200842E+01  1.6958129E+03
 1.9222950E+01  1.6950521E+03
 1.9245058E+01  1.6934438E+03
 1.9267166E+01  1.6927272E+03
 1.9289274E+01  1.6923754E+03
 1.9311382E+01  1.6898405E+03
 1.9333490E+01  1.6869930E+03
 1.9355598E+01  1.6836406E+03
 1.9377707E+01  1.6821030E+03
 1.9399815E+01  1.6806384E+03
 1.9421923E+01  1.6780912E+03
 1.9444031E+01  1.6748433E+03
 1.9466139E+01  1.6723263E+03
 1.9488247E+01  1.6706302E+03
 1.9510355E+01  1.6677927E+03
 1.9532463E+01  1.6649922E+03
 1.9554571E+01  1.6613667E+03
 1.9576679E+01  1.6591189E+03
 1.9598787E+01  1.6575956E+03
 1.9620895E+01  1.6554753E+03
 1.9643003E+01  1.6531803E+03
 1.9665112E+01  1.6503835E+03
 1.9687220E+01  1.6488785E+03
 1.9709328E+01  1.6483490E+03
 1.9731436E+01  1.6453777E+03
 1.9753544E+01  1.6432415E+03
 1.9775652E+01  1.6427883E+03
 1.9797760E+01  1.6421934E+03
 1.9819868E+01  1.6413086E+03
 1.9841976E+01  1.6397566E+03
 1.9864084E+01  1.6382064E+03
 1.9886192E+01  1.6381552E+03
 1.9908300E+01  1.6366305E+03
 1.9930408E+01  1.6348931E+03
 1.9952517E+01  1.6356837E+03
 1.9974625E+01  1.6345756E+03
 1.9996733E+01  1.6320723E+03
 2.0018841E+01  1.6314482E+03
 2.0040949E+01  1.6307246E+03
 2.0063057E+01  1.6292900E+03
 2.0085165E+01  1.6289341E+03
 2.0107273E+01  1.6293978E+03
 2.0129381E+01  1.6299520E+03
 2.0151489E+01  1.6294891E+03
 2.0173597E+01  1.6293451E+03
 2.0195705E+01  1.6288397E+03
 2.0217813E+01  1.6275350E+03
 2.0239922E+01  1.6258206E+03
 2.0262030E+01  1.6240330E+03
 2.0284138E+01  1.6215292E+03
 2.0306246E+01  1.6203926E+03
 2.0328354E+01  1.6183696E+03
 2.0350462E+01  1.6162166E+03
 2.0372568E+01  1.6143458E+03
 2.0394676E+01  1.6122931E+03
 2.0416784E+01  1.6105044E+03
 2.0438892E+01  1.6081176E+03
 2.0461000E+01  1.6061226E+03
 2.0483109E+01  1.6043809E+03
 2.0505217E+01  1.6021477E+03
 2.0527325E+01  1.6008134E+03
 2.0549433E+01  1.5996719E+03
 2.0571541E+01  1.5972091E+03
 2.0593649E+01  1.5954034E+03
 2.0615757E+01  1.5954791E+03
 2.0637865E+01  1.5959800E+03
 2.0659973E+01  1.5957622E+03
 2.0682081E+01  1.5953402E+03
 2.0704189E+01  1.5950591E+03
 2.0726297E+01  1.5951732E+03
 2.0748405E+01  1.5947856E+03
 2.0770514E+01  1.5960509E+03
 2.0792622E+01  1.5976139E+03
 2.0814730E+01  1.5988988E+03
 2.0836838E+01  1.6025948E+03
 2.0858946E+01  1.6069799E+03
 2.0881054E+01  1.6119454E+03
 2.0903162E+01  1.6183009E+03
 2.0925270E+01  1.6236309E+03
 2.0947378E+01  1.6270288E+03
 2.0969486E+01  1.6295547E+03
 2.0991594E+01  1.6348019E+03
 2.1013702E+01  1.6387856E+03
 2.1035810E+01  1.6435928E+03
 2.1057919E+01  1.6494249E+03
 2.1080027E+01  1.6556112E+03
 2.1102135E+01  1.6616415E+03
 2.1124243E+01  1.6636687E+03
 2.1146351E+01  1.6658507E+03
 2.1168459E+01  1.6646267E+03
 2.1190567E+01  1.6590463E+03
 2.1212675E+01  1.6522045E+03
 2.1234783E+01  1.6419496E+03
 2.1256891E+01  1.6289919E+03
 2.1278999E+01  1.6174799E+03
 2.1301107E+01  1.6111149E+03
 2.1323215E+01  1.6040979E+03
 2.1345324E+01  1.5976130E+03
 2.1367432E+01  1.5932928E+03
 2.1389540E+01  1.5890994E+03
 2.1411648E+01  1.5834667E+03
 2.1433756E+01  1.5777482E+03
 2.1455864E+01  1.5706543E+03
 2.1477972E+01  1.5640638E+03
 2.1500080E+01  1.5569001E+03
 2.1522188E+01  1.5508190E+03
 2.1544296E+01  1.5459784E+03
 2.1566404E+01  1.5417197E+03
 2.1588512E+01  1.5382689E+03
 2.1610620E+01  1.5355841E+03
 2.1632729E+01  1.5333138E+03
 2.1654837E+01  1.5313235E+03
 2.1676945E+01  1.5278741E+03
 2.1699053E+01  1.5253879E+03
 2.1721161E+01  1.5238810E+03
 2.1743269E+01  1.5221337E+03
 2.1765377E+01  1.5203286E+03
 2.1787485E+01  1.5195160E+03
 2.1809593E+01  1.5174115E+03
 2.1831701E+01  1.5163020E+03
 2.1853809E+01  1.5157264E+03
 2.1875917E+01  1.5135505E+03
 2.1898026E+01  1.5118153E+03
 2.1920134E+01  1.5116915E+03
 2.1942240E+01  1.5113519E+03
 2.1964348E+01  1.5096823E+03
 2.1986456E+01  1.5089780E+03
 2.2008564E+01  1.5079929E+03
 2.2030672E+01  1.5058884E+03
 2.2052780E+01  1.5042015E+03
 2.2074888E+01  1.5034922E+03
 2.2096996E+01  1.5015818E+03
 2.2119104E+01  1.5002013E+03
 2.2141212E+01  1.4990834E+03
 2.2163321E+01  1.4973290E+03
 2.2185429E+01  1.4955648E+03
 2.2207537E+01  1.4938818E+03
 2.2229645E+01  1.4929375E+03
 2.2251753E+01  1.4909731E+03
 2.2273861E+01  1.4892205E+03
 2.2295969E+01  1.4871307E+03
 2.2318077E+01  1.4864362E+03
 2.2340185E+01  1.4843806E+03
 2.2362293E+01  1.4826995E+03
 2.2384401E+01  1.4808706E+03
 2.2406509E+01  1.4783182E+03
 2.2428617E+01  1.4761130E+03
 2.2450726E+01  1.4754803E+03
 2.2472834E+01  1.4736470E+03
 2.2494942E+01  1.4725496E+03
 2.2517050E+01  1.4711996E+03
 2.2539158E+01  1.4691838E+03
 2.2561266E+01  1.4664945E+03
 2.2583374E+01  1.4656371E+03
 2.2605482E+01  1.4639999E+03
 2.2627590E+01  1.4623027E+03
 2.2649698E+01  1.4613503E+03
 2.2671806E+01  1.4596532E+03
 2.2693914E+01  1.4587954E+03
 2.2716022E+01  1.4573219E+03
 2.2738131E+01  1.4561219E+03
 2.2760239E+01  1.4559296E+03
 2.2782347E+01  1.4541541E+03
 2.2804455E+01  1.4537444E+03
 2.2826563E+01  1.4532325E+03
 2.2848671E+01  1.4495137E+03
 2.2870779E+01  1.4491246E+03
 2.2892887E+01  1.4481417E+03
 2.2914995E+01  1.4455659E+03
 2.2937103E+01  1.4442314E+03
 2.2959211E+01  1.4443446E+03
 2.2981319E+01  1.4410861E+03
 2.3003428E+01  1.4469021E+03
 2.3025536E+01  1.4682488E+03
 2.3047644E+01  1.4669226E+03
 2.3069752E+01  1.4459943E+03
 2.3091860E+01  1.4342476E+03
 2.3113968E+01  1.4314828E+03
 2.3136076E+01  1.4048447E+03
 2.3158184E+01  1.3231676E+03
 2.3180292E+01  1.2463221E+03
 2.3202400E+01  1.1920984E+03
 2.3224508E+01  1.1598997E+03
 2.3246616E+01  1.1293712E+03
 2.3268724E+01  1.0956969E+03
 2.3290833E+01  1.0638823E+03
 2.3312941E+01  1.0554078E+03
 2.3335049E+01  1.0391062E+03
 2.3357157E+01  1.0221306E+03
 2.3379265E+01  1.0038853E+03
 2.3401373E+01  9.8847833E+02
 2.3423481E+01  9.7084424E+02
 2.3445589E+01  9.5555096E+02
 2.3467697E+01  9.4177155E+02
 2.3489805E+01  9.2855731E+02
 2.3511911E+01  9.1848242E+02
 2.3534019E+01  9.1899799E+02
 2.3556128E+01  9.1276178E+02
 2.3578236E+01  9.0838129E+02
 2.3600344E+01  9.0213385E+02
 2.3622452E+01  8.9675677E+02
 2.3644560E+01  8.8927008E+02
 2.3666668E+01  8.8386597E+02
 2.3688776E+01  8.7678473E+02
 2.3710884E+01  8.7206287E+02
 2.3732992E+01  8.6621997E+02
 2.3755100E+01  8.6236218E+02
 2.3777208E+01  8.5915399E+02
 2.3799316E+01  8.5802008E+02
 2.3821424E+01  8.5681421E+02
 2.3843533E+01  8.5548761E+02
 2.3865641E+01  8.5599182E+02
 2.3887749E+01  8.5511652E+02
 2.3909857E+01  8.5530536E+02
 2.3931965E+01  8.5455420E+02
 2.3954073E+01  8.5502203E+02
 2.3976181E+01  8.5423553E+02
 2.3998289E+01  8.5368085E+02
 2.4020397E+01  8.5182971E+02
 2.4042505E+01  8.5115088E+02
 2.4064613E+01  8.4737689E+02
 2.4086721E+01  8.4566022E+02
 2.4108829E+01  8.4136786E+02
 2.4130938E+01  8.3510779E+02
 2.4153046E+01  8.2968970E+02
 2.4175154E+01  8.2031775E+02
 2.4197262E+01  8.1149371E+02
 2.4219370E+01  8.0306976E+02
 2.4241478E+01  7.9162238E+02
 2.4263586E+01  7.8125122E+02
 2.4285694E+01  7.7075098E+02
 2.4307802E+01  7.5881458E+02
 2.4329910E+01  7.4610663E+02
 2.4352018E+01  7.3224323E+02
 2.4374126E+01  7.1649713E+02
 2.4396235E+01  6.9901019E+02
 2.4418343E+01  6.8208252E+02
 2.4440451E+01  6.7216956E+02
 2.4462559E+01  6.5451221E+02
 2.4484667E+01  6.3238281E+02
 2.4506775E+01  6.1368042E+02
 2.4528883E+01  5.8513770E+02
 2.4550991E+01  5.6421094E+02
 2.4573099E+01  5.2708594E+02
 2.4595207E+01  4.9279703E+02
 2.4617315E+01  4.5116296E+02
 2.4639423E+01  4.2324237E+02
 2.4661531E+01  3.9065802E+02
 2.4683640E+01  3.4781647E+02
 2.4705748E+01  2.9332397E+02
 2.4727856E+01  2.2363118E+02
 2.4749964E+01  1.1191235E+02
 2.4772072E+01  1.9403048E+01
 2.4794180E+01  3.0288819E-02
 2.4816288E+01  0.0000000E+00
 2.4838396E+01  0.0000000E+00
 2.4860504E+01  0.0000000E+00
 2.4882612E+01  0.0000000E+00
 2.4904720E+01  0.0000000E+00
 2.4926828E+01  0.0000000E+00
 2.4948936E+01  0.0000000E+00
 2.4971045E+01  0.0000000E+00
 2.4993153E+01  0.0000000E+00
 2.5015261E+01  0.0000000E+00
 2.5037369E+01  0.0000000E+00
 2.5059477E+01  0.0000000E+00
 2.5081583E+01  0.0000000E+00
 2.5103691E+01  0.0000000E+00
 2.5125799E+01  0.0000000E+00
 2.5147907E+01  0.0000000E+00
 2.5170015E+01  0.0000000E+00
 2.5192123E+01  0.0000000E+00
 2.5214231E+01  0.0000000E+00
 2.5236340E+01  0.0000000E+00
 2.5258448E+01  0.0000000E+00
 2.5280556E+01  0.0000000E+00
 2.5302664E+01  0.0000000E+00
 2.5324772E+01  0.0000000E+00
 2.5346880E+01  0.0000000E+00
 2.5368988E+01  0.0000000E+00
 2.5391096E+01  0.0000000E+00
 2.5413204E+01  0.0000000E+00
 2.5435312E+01  0.0000000E+00
 2.5457420E+01  0.0000000E+00
 2.5479528E+01  0.0000000E+00
 2.5501637E+01  0.0000000E+00
 2.5523745E+01  0.0000000E+00
 2.5545853E+01  0.0000000E+00
 2.5567961E+01  0.0000000E+00
 2.5590069E+01  0.0000000E+00
 2.5612177E+01  0.0000000E+00
 2.5634285E+01  0.0000000E+00
 2.5656393E+01  0.0000000E+00
 2.5678501E+01  0.0000000E+00
 2.5700609E+01  0.0000000E+00
 2.5722717E+01  0.0000000E+00
 2.5744825E+01  0.0000000E+00
 2.5766933E+01  0.0000000E+00
 2.5789042E+01  0.0000000E+00
 2.5811150E+01  0.0000000E+00
 2.5833258E+01  0.0000000E+00
 2.5855366E+01  0.0000000E+00
 2.5877474E+01  0.0000000E+00
 2.5899582E+01  0.0000000E+00
 2.5921690E+01  0.0000000E+00
 2.5943798E+01  0.0000000E+00
 2.5965906E+01  0.0000000E+00
 2.5988014E+01  0.0000000E+00
 2.6010122E+01  0.0000000E+00
 2.6032230E+01  0.0000000E+00
 2.6054338E+01  0.0000000E+00
 2.6076447E+01  0.0000000E+00
 2.6098555E+01  0.0000000E+00
 2.6120663E+01  0.0000000E+00
 2.6142771E+01  0.0000000E+00
 2.6164879E+01  0.0000000E+00
 2.6186987E+01  0.0000000E+00
 2.6209095E+01  0.0000000E+00
 2.6231203E+01  0.0000000E+00
 2.6253311E+01  0.0000000E+00
 2.6275419E+01  0.0000000E+00
 2.6297527E+01  0.0000000E+00
 2.6319635E+01  0.0000000E+00
 2.6341743E+01  0.0000000E+00
 2.6363852E+01  0.0000000E+00
 2.6385960E+01  0.0000000E+00
 2.6408068E+01  0.0000000E+00
 2.6430176E+01  0.0000000E+00
 2.6452284E+01  0.0000000E+00
 2.6474392E+01  0.0000000E+00
 2.6496500E+01  0.0000000E+00
 2.6518608E+01  0.0000000E+00
 2.6540716E+01  0.0000000E+00
 2.6562824E+01  0.0000000E+00
 2.6584932E+01  0.0000000E+00
 2.6607040E+01  0.0000000E+00
 2.6629147E+01  0.0000000E+00
 2.6651255E+01  0.0000000E+00
 2.6673363E+01  0.0000000E+00
 2.6695471E+01  0.0000000E+00
 2.6717579E+01  0.0000000E+00
 2.6739687E+01  0.0000000E+00
 2.6761795E+01  0.0000000E+00
 2.6783903E+01  0.0000000E+00
 2.6806011E+01  0.0000000E+00
 2.6828119E+01  0.0000000E+00
 2.6850227E+01  0.0000000E+00
 2.6872335E+01  0.0000000E+00
 2.6894444E+01  0.0000000E+00
 2.6916552E+01  0.0000000E+00
 2.6938660E+01  0.0000000E+00
 2.6960768E+01  0.0000000E+00
 2.6982876E+01  0.0000000E+00
 2.7004984E+01  0.0000000E+00
 2.7027092E+01  0.0000000E+00
 2.7049200E+01  0.0000000E+00
 2.7071308E+01  0.0000000E+00
 2.7093416E+01  0.0000000E+00
 2.7115524E+01  0.0000000E+00
 2.7137632E+01  0.0000000E+00
 2.7159740E+01  0.0000000E+00
 2.7181849E+01  0.0000000E+00
 2.7203957E+01  0.0000000E+00
 2.7226065E+01  0.0000000E+00
 2.7248173E+01  0.0000000E+00
 2.7270281E+01  0.0000000E+00
 2.7292389E+01  0.0000000E+00
 2.7314497E+01  0.0000000E+00
 2.7336605E+01  0.0000000E+00
 2.7358713E+01  0.0000000E+00
 2.7380821E+01  0.0000000E+00
 2.7402929E+01  0.0000000E+00
 2.7425037E+01  0.0000000E+00
 2.7447145E+01  0.0000000E+00
 2.7469254E+01  0.0000000E+00
 2.7491362E+01  0.0000000E+00
 2.7513470E+01  0.0000000E+00
 2.7535578E+01  0.0000000E+00
 2.7557686E+01  0.0000000E+00
 2.7579794E+01  0.0000000E+00
 2.7601902E+01  0.0000000E+00
 2.7624010E+01  0.0000000E+00
 2.7646118E+01  0.0000000E+00
 2.7668226E+01  0.0000000E+00
 2.7690334E+01  0.0000000E+00
 2.7712442E+01  0.0000000E+00
 2.7734550E+01  0.0000000E+00
 2.7756659E+01  0.0000000E+00
 2.7778767E+01  0.0000000E+00
 2.7800875E+01  0.0000000E+00
 2.7822983E+01  0.0000000E+00
 2.7845091E+01  0.0000000E+00
 2.7867199E+01  0.0000000E+00
 2.7889307E+01  0.0000000E+00
 2.7911415E+01  0.0000000E+00
 2.7933523E+01  0.0000000E+00
 2.7955631E+01  0.0000000E+00
 2.7977739E+01  0.0000000E+00
 2.7999847E+01  0.0000000E+00
 2.8021955E+01  0.0000000E+00
 2.8044064E+01  0.0000000E+00
 2.8066172E+01  0.0000000E+00
 2.8088280E+01  0.0000000E+00
 2.8110388E+01  0.0000000E+00
 2.8132496E+01  0.0000000E+00
 2.8154604E+01  0.0000000E+00
 2.8176712E+01  0.0000000E+00
 2.8198818E+01  0.0000000E+00
 2.8220926E+01  0.0000000E+00
 2.8243034E+01  0.0000000E+00
 2.8265142E+01  0.0000000E+00
 2.8287251E+01  0.0000000E+00
 2.8309359E+01  0.0000000E+00
 2.8331467E+01  0.0000000E+00
 2.8353575E+01  0.0000000E+00
 2.8375683E+01  0.0000000E+00
 2.8397791E+01  0.0000000E+00
 2.8419899E+01  0.0000000E+00
 2.8442007E+01  0.0000000E+00
 2.8464115E+01  0.0000000E+00
 2.8486223E+01  0.0000000E+00
 2.8508331E+01  0.0000000E+00
 2.8530439E+01  0.0000000E+00
 2.8552547E+01  0.0000000E+00
 2.8574656E+01  0.0000000E+00
 2.8596764E+01  0.0000000E+00
 2.8618872E+01  0.0000000E+00
 2.8640980E+01  0.0000000E+00
 2.8663088E+01  0.0000000E+00
 2.8685196E+01  0.0000000E+00
 2.8707304E+01  0.0000000E+00
 2.8729412E+01  0.0000000E+00
 2.8751520E+01  0.0000000E+00
 2.8773628E+01  0.0000000E+00
 2.8795736E+01  0.0000000E+00
 2.8817844E+01  0.0000000E+00
 2.8839952E+01  0.0000000E+00
 2.8862061E+01  0.0000000E+00
 2.8884169E+01  0.0000000E+00
 2.8906277E+01  0.0000000E+00
 2.8928385E+01  0.0000000E+00
 2.8950493E+01  0.0000000E+00
 2.8972601E+01  0.0000000E+00
 2.8994709E+01  0.0000000E+00
 2.9016817E+01  0.0000000E+00
 2.9038925E+01  0.0000000E+00
 2.9061033E+01  0.0000000E+00
 2.9083141E+01  0.0000000E+00
 2.9105249E+01  0.0000000E+00
 2.9127357E+01  0.0000000E+00
 2.9149466E+01  0.0000000E+00
 2.9171574E+01  0.0000000E+00
 2.9193682E+01  0.0000000E+00
 2.9215790E+01  0.0000000E+00
 2.9237898E+01  0.0000000E+00
 2.9260006E+01  0.0000000E+00
 2.9282114E+01  0.0000000E+00
 2.9304222E+01  0.0000000E+00
 2.9326330E+01  0.0000000E+00
 2.9348438E+01  0.0000000E+00
 2.9370546E+01  0.0000000E+00
 2.9392654E+01  0.0000000E+00
 2.9414762E+01  0.0000000E+00
 2.9436871E+01  0.0000000E+00
 2.9458979E+01  0.0000000E+00
 2.9481087E+01  0.0000000E+00
 2.9503195E+01  0.0000000E+00
 2.9525303E+01  0.0000000E+00
 2.9547411E+01  0.0000000E+00
 2.9569519E+01  0.0000000E+00
 2.9591627E+01  0.0000000E+00
 2.9613735E+01  0.0000000E+00
 2.9635843E+01  0.0000000E+00
 2.9657951E+01  0.0000000E+00
 2.9680059E+01  0.0000000E+00
 2.9702168E+01  0.0000000E+00
 2.9724276E+01  0.0000000E+00
 2.9746384E+01  0.0000000E+00
 2.9768490E+01  0.0000000E+00
 2.9790598E+01  0.0000000E+00
 2.9812706E+01  0.0000000E+00
 2.9834814E+01  0.0000000E+00
 2.9856922E+01  0.0000000E+00
 2.9879030E+01  0.0000000E+00
 2.9901138E+01  0.0000000E+00
 2.9923246E+01  0.0000000E+00
 2.9945354E+01  0.0000000E+00
 2.9967463E+01  0.0000000E+00
 2.9989571E+01  0.0000000E+00
 3.0011679E+01  0.0000000E+00
 3.0033787E+01  0.0000000E+00
 3.0055895E+01  0.0000000E+00
 3.0078003E+01  0.0000000E+00
 3.0100111E+01  0.0000000E+00
 3.0122219E+01  0.0000000E+00
 3.0144327E+01  0.0000000E+00
 3.0166435E+01  0.0000000E+00
 3.0188543E+01  0.0000000E+00
 3.0210651E+01  0.0000000E+00
 3.0232759E+01  0.0000000E+00
 3.0254868E+01  0.0000000E+00
 3.0276976E+01  0.0000000E+00
 3.0299084E+01  0.0000000E+00
 3.0321192E+01  0.0000000E+00
 3.0343300E+01  0.0000000E+00
 3.0365408E+01  0.0000000E+00
 3.0387516E+01  0.0000000E+00
 3.0409624E+01  0.0000000E+00
 3.0431732E+01  0.0000000E+00
 3.0453840E+01  0.0000000E+00
 3.0475948E+01  0.0000000E+00
 3.0498056E+01  0.0000000E+00
 3.0520164E+01  0.0000000E+00
 3.0542273E+01  0.0000000E+00
 3.0564381E+01  0.0000000E+00
 3.0586489E+01  0.0000000E+00
 3.0608597E+01  0.0000000E+00
 3.0630705E+01  0.0000000E+00
 3.0652813E+01  0.0000000E+00
 3.0674921E+01  0.0000000E+00
 3.0697029E+01  0.0000000E+00
 3.0719137E+01  0.0000000E+00
 3.0741245E+01  0.0000000E+00
 3.0763353E+01  0.0000000E+00
 3.0785461E+01  0.0000000E+00
 3.0807570E+01  0.0000000E+00
 3.0829678E+01  0.0000000E+00
 3.0851786E+01  0.0000000E+00
 3.0873894E+01  0.0000000E+00
 3.0896002E+01  0.0000000E+00
 3.0918110E+01  0.0000000E+00
 3.0940218E+01  0.0000000E+00
 3.0962326E+01  0.0000000E+00
 3.0984434E+01  0.0000000E+00
 3.1006542E+01  0.0000000E+00
 3.1028650E+01  0.0000000E+00
 3.1050758E+01  0.0000000E+00
 3.1072866E+01  0.0000000E+00
 3.1094975E+01  0.0000000E+00
 3.1117083E+01  0.0000000E+00
 3.1139191E+01  0.0000000E+00
 3.1161299E+01  0.0000000E+00
 3.1183407E+01  0.0000000E+00
 3.1205515E+01  0.0000000E+00
 3.1227623E+01  0.0000000E+00
 3.1249731E+01  0.0000000E+00
 3.1271839E+01  0.0000000E+00
 3.1293947E+01  0.0000000E+00
 3.1316055E+01  0.0000000E+00
 3.1338161E+01  0.0000000E+00
 3.1360270E+01  0.0000000E+00
 3.1382378E+01  0.0000000E+00
 3.1404486E+01  0.0000000E+00
 3.1426594E+01  0.0000000E+00
 3.1448702E+01  0.0000000E+00
 3.1470810E+01  0.0000000E+00
 3.1492918E+01  0.0000000E+00
 3.1515026E+01  0.0000000E+00
 3.1537134E+01  0.0000000E+00
 3.1559242E+01  0.0000000E+00
 3.1581350E+01  0.0000000E+00
 3.1603458E+01  0.0000000E+00
 3.1625566E+01  0.0000000E+00
 3.1647675E+01  0.0000000E+00
 3.1669783E+01  0.0000000E+00
 3.1691891E+01  0.0000000E+00
 3.1713999E+01  0.0000000E+00
 3.1736107E+01  0.0000000E+00
 3.1758215E+01  0.0000000E+00
 3.1780323E+01  0.0000000E+00
 3.1802431E+01  0.0000000E+00
 3.1824539E+01  0.0000000E+00
 3.1846647E+01  0.0000000E+00
 3.1868755E+01  0.0000000E+00
 3.1890863E+01  0.0000000E+00
 3.1912971E+01  0.0000000E+00
 3.1935080E+01  0.0000000E+00
 3.1957188E+01  0.0000000E+00
 3.1979296E+01  0.0000000E+00
 3.2001404E+01  0.0000000E+00
 3.2023514E+01  0.0000000E+00
 3.2045620E+01  0.0000000E+00
 3.2067730E+01  0.0000000E+00
 3.2089836E+01  0.0000000E+00
 3.2111942E+01  0.0000000E+00
 3.2134052E+01  0.0000000E+00
 3.2156158E+01  0.0000000E+00
 3.2178268E+01  0.0000000E+00
 3.2200375E+01  0.0000000E+00
 3.2222485E+01  0.0000000E+00
 3.2244591E+01  0.0000000E+00
 3.2266701E+01  0.0000000E+00
 3.2288807E+01  0.0000000E+00
 3.2310917E+01  0.0000000E+00
 3.2333023E+01  0.0000000E+00
 3.2355133E+01  0.0000000E+00
 3.2377239E+01  0.0000000E+00
 3.2399349E+01  0.0000000E+00
 3.2421455E+01  0.0000000E+00
 3.2443565E+01  0.0000000E+00
 3.2465672E+01  0.0000000E+00
 3.2487782E+01  0.0000000E+00
 3.2509888E+01  0.0000000E+00
 3.2531998E+01  0.0000000E+00
 3.2554104E+01  0.0000000E+00
 3.2576214E+01  0.0000000E+00
 3.2598320E+01  0.0000000E+00
 3.2620430E+01  0.0000000E+00
 3.2642536E+01  0.0000000E+00
 3.2664646E+01  0.0000000E+00
 3.2686752E+01  0.0000000E+00
 3.2708862E+01  0.0000000E+00
 3.2730968E+01  0.0000000E+00
