D:\DATA\UserData\CuiTian20190403\\CWH\BA\BA_10.tif: 2-theta Scan
2-Theta Angle (Degrees)
Intensity
       1481
 1.1054026E-02  4.1585575E+01
 3.3162076E-02  4.2327248E+01
 5.5270128E-02  4.4205639E+01
 7.7378176E-02  4.4137451E+01
 9.9486232E-02  4.4358295E+01
 1.2159428E-01  4.2963924E+01
 1.4370233E-01  4.1625324E+01
 1.6581038E-01  4.0973511E+01
 1.8791844E-01  3.9732025E+01
 2.1002649E-01  3.9471279E+01
 2.3213454E-01  4.1478680E+01
 2.5424260E-01  4.2490448E+01
 2.7635065E-01  4.1874119E+01
 2.9845870E-01  4.0891266E+01
 3.2056674E-01  4.0605625E+01
 3.4267479E-01  4.0055843E+01
 3.6478284E-01  3.9480484E+01
 3.8689089E-01  3.9802124E+01
 4.0899894E-01  4.0447384E+01
 4.3110698E-01  4.0918503E+01
 4.5321503E-01  4.0539444E+01
 4.7532311E-01  4.0916931E+01
 4.9743116E-01  4.1680508E+01
 5.1953918E-01  4.1716198E+01
 5.4164726E-01  4.1896034E+01
 5.6375527E-01  4.1873119E+01
 5.8586335E-01  4.2286858E+01
 6.0797143E-01  4.2795895E+01
 6.3007945E-01  4.2049419E+01
 6.5218753E-01  4.1134201E+01
 6.7429554E-01  4.0871731E+01
 6.9640362E-01  4.1601990E+01
 7.1851164E-01  4.1541138E+01
 7.4061972E-01  4.1169029E+01
 7.6272774E-01  4.1292122E+01
 7.8483582E-01  4.1588696E+01
 8.0694389E-01  4.1948017E+01
 8.2905191E-01  4.1769253E+01
 8.5115999E-01  4.1103462E+01
 8.7326801E-01  4.1665325E+01
 8.9537609E-01  4.2076794E+01
 9.1748410E-01  4.1417252E+01
 9.3959218E-01  4.1632481E+01
 9.6170020E-01  4.2223759E+01
 9.8380828E-01  4.2385628E+01
 1.0059164E+00  4.2745262E+01
 1.0280243E+00  4.2691341E+01
 1.0501324E+00  4.2147133E+01
 1.0722405E+00  4.2534767E+01
 1.0943485E+00  4.2967266E+01
 1.1164566E+00  4.3048077E+01
 1.1385646E+00  4.3010757E+01
 1.1606727E+00  4.2740631E+01
 1.1827807E+00  4.2747456E+01
 1.2048888E+00  4.3198235E+01
 1.2269968E+00  4.3737465E+01
 1.2491049E+00  4.3809490E+01
 1.2712129E+00  4.3280392E+01
 1.2933210E+00  4.3401615E+01
 1.3154291E+00  4.3747761E+01
 1.3375371E+00  4.3510193E+01
 1.3596451E+00  4.3795250E+01
 1.3817532E+00  4.4306202E+01
 1.4038613E+00  4.4706009E+01
 1.4259692E+00  4.4998043E+01
 1.4480773E+00  4.4456238E+01
 1.4701854E+00  4.4918644E+01
 1.4922935E+00  4.5269997E+01
 1.5144016E+00  4.4944077E+01
 1.5365095E+00  4.5737701E+01
 1.5586176E+00  4.6438965E+01
 1.5807257E+00  4.6520729E+01
 1.6028337E+00  4.7160599E+01
 1.6249417E+00  4.8239117E+01
 1.6470498E+00  4.8670815E+01
 1.6691579E+00  4.8726833E+01
 1.6912659E+00  4.9364265E+01
 1.7133739E+00  5.0259560E+01
 1.7354820E+00  5.0095860E+01
 1.7575901E+00  4.9621918E+01
 1.7796981E+00  4.9869770E+01
 1.8018062E+00  5.1042690E+01
 1.8239142E+00  5.3043545E+01
 1.8460222E+00  5.5438335E+01
 1.8681303E+00  5.9578705E+01
 1.8902384E+00  6.9053368E+01
 1.9123464E+00  8.9643234E+01
 1.9344544E+00  1.2276996E+02
 1.9565625E+00  1.6315729E+02
 1.9786706E+00  2.0511780E+02
 2.0007787E+00  2.4605901E+02
 2.0228868E+00  2.8547714E+02
 2.0449948E+00  3.2551270E+02
 2.0671027E+00  3.6453040E+02
 2.0892107E+00  4.0957062E+02
 2.1113188E+00  4.5677426E+02
 2.1334269E+00  5.0985532E+02
 2.1555350E+00  5.6758240E+02
 2.1776431E+00  6.2799475E+02
 2.1997511E+00  6.8109460E+02
 2.2218592E+00  7.2778015E+02
 2.2439673E+00  7.6343542E+02
 2.2660751E+00  7.9354785E+02
 2.2881832E+00  8.2783807E+02
 2.3102913E+00  8.5892981E+02
 2.3323994E+00  8.8736230E+02
 2.3545074E+00  9.1881262E+02
 2.3766155E+00  9.5244977E+02
 2.3987236E+00  9.8329211E+02
 2.4208317E+00  1.0122039E+03
 2.4429398E+00  1.0383402E+03
 2.4650476E+00  1.0647900E+03
 2.4871557E+00  1.0916603E+03
 2.5092638E+00  1.1150380E+03
 2.5313718E+00  1.1397665E+03
 2.5534799E+00  1.1646948E+03
 2.5755880E+00  1.1883109E+03
 2.5976961E+00  1.2102706E+03
 2.6198041E+00  1.2310671E+03
 2.6419122E+00  1.2532473E+03
 2.6640201E+00  1.2755559E+03
 2.6861281E+00  1.2958850E+03
 2.7082362E+00  1.3151759E+03
 2.7303443E+00  1.3351328E+03
 2.7524524E+00  1.3545615E+03
 2.7745605E+00  1.3734567E+03
 2.7966685E+00  1.3930745E+03
 2.8187766E+00  1.4134690E+03
 2.8408844E+00  1.4284274E+03
 2.8629925E+00  1.4445992E+03
 2.8851006E+00  1.4652683E+03
 2.9072087E+00  1.4841385E+03
 2.9293168E+00  1.5004186E+03
 2.9514248E+00  1.5169888E+03
 2.9735329E+00  1.5327893E+03
 2.9956410E+00  1.5467947E+03
 3.0177491E+00  1.5621410E+03
 3.0398569E+00  1.5798710E+03
 3.0619650E+00  1.5964430E+03
 3.0840731E+00  1.6086802E+03
 3.1061811E+00  1.6187755E+03
 3.1282892E+00  1.6291923E+03
 3.1503973E+00  1.6420334E+03
 3.1725054E+00  1.6539197E+03
 3.1946135E+00  1.6645856E+03
 3.2167215E+00  1.6759634E+03
 3.2388294E+00  1.6878832E+03
 3.2609375E+00  1.7016263E+03
 3.2830455E+00  1.7095343E+03
 3.3051536E+00  1.7207463E+03
 3.3272617E+00  1.7319933E+03
 3.3493698E+00  1.7430808E+03
 3.3714778E+00  1.7510693E+03
 3.3935859E+00  1.7599406E+03
 3.4156940E+00  1.7692128E+03
 3.4378018E+00  1.7787744E+03
 3.4599099E+00  1.7909161E+03
 3.4820180E+00  1.8043013E+03
 3.5041261E+00  1.8148636E+03
 3.5262341E+00  1.8209777E+03
 3.5483422E+00  1.8302900E+03
 3.5704503E+00  1.8387072E+03
 3.5925584E+00  1.8474412E+03
 3.6146665E+00  1.8524712E+03
 3.6367743E+00  1.8594921E+03
 3.6588824E+00  1.8675560E+03
 3.6809905E+00  1.8724536E+03
 3.7030985E+00  1.8783751E+03
 3.7252066E+00  1.8870067E+03
 3.7473147E+00  1.8953938E+03
 3.7694228E+00  1.9028873E+03
 3.7915308E+00  1.9083278E+03
 3.8136389E+00  1.9140309E+03
 3.8357468E+00  1.9202561E+03
 3.8578548E+00  1.9257500E+03
 3.8799629E+00  1.9344824E+03
 3.9020710E+00  1.9428562E+03
 3.9241791E+00  1.9471119E+03
 3.9462872E+00  1.9494622E+03
 3.9683952E+00  1.9546990E+03
 3.9905033E+00  1.9590198E+03
 4.0126114E+00  1.9625487E+03
 4.0347195E+00  1.9672776E+03
 4.0568275E+00  1.9743611E+03
 4.0789356E+00  1.9776953E+03
 4.1010437E+00  1.9783447E+03
 4.1231513E+00  1.9834130E+03
 4.1452594E+00  1.9898447E+03
 4.1673675E+00  1.9927163E+03
 4.1894755E+00  1.9954778E+03
 4.2115836E+00  1.9993691E+03
 4.2336917E+00  2.0023883E+03
 4.2557998E+00  2.0047063E+03
 4.2779078E+00  2.0083296E+03
 4.3000159E+00  2.0112756E+03
 4.3221240E+00  2.0168944E+03
 4.3442321E+00  2.0218750E+03
 4.3663402E+00  2.0227269E+03
 4.3884482E+00  2.0227240E+03
 4.4105563E+00  2.0255398E+03
 4.4326644E+00  2.0290507E+03
 4.4547725E+00  2.0322632E+03
 4.4768806E+00  2.0340817E+03
 4.4989886E+00  2.0351711E+03
 4.5210962E+00  2.0357935E+03
 4.5432043E+00  2.0377731E+03
 4.5653124E+00  2.0408773E+03
 4.5874205E+00  2.0413690E+03
 4.6095285E+00  2.0439159E+03
 4.6316366E+00  2.0440270E+03
 4.6537447E+00  2.0449086E+03
 4.6758528E+00  2.0470160E+03
 4.6979609E+00  2.0481138E+03
 4.7200689E+00  2.0496677E+03
 4.7421770E+00  2.0533301E+03
 4.7642851E+00  2.0563503E+03
 4.7863932E+00  2.0549790E+03
 4.8085012E+00  2.0546255E+03
 4.8306093E+00  2.0554805E+03
 4.8527174E+00  2.0544207E+03
 4.8748255E+00  2.0548938E+03
 4.8969331E+00  2.0566973E+03
 4.9190412E+00  2.0560088E+03
 4.9411492E+00  2.0557151E+03
 4.9632573E+00  2.0565435E+03
 4.9853654E+00  2.0582058E+03
 5.0074735E+00  2.0564202E+03
 5.0295815E+00  2.0562256E+03
 5.0516896E+00  2.0564648E+03
 5.0737977E+00  2.0575132E+03
 5.0959058E+00  2.0578159E+03
 5.1180139E+00  2.0586323E+03
 5.1401219E+00  2.0593569E+03
 5.1622300E+00  2.0587625E+03
 5.1843381E+00  2.0585603E+03
 5.2064462E+00  2.0576890E+03
 5.2285542E+00  2.0562393E+03
 5.2506623E+00  2.0576208E+03
 5.2727704E+00  2.0577297E+03
 5.2948780E+00  2.0576851E+03
 5.3169861E+00  2.0574397E+03
 5.3390942E+00  2.0577837E+03
 5.3612022E+00  2.0577988E+03
 5.3833103E+00  2.0579014E+03
 5.4054184E+00  2.0596289E+03
 5.4275265E+00  2.0604851E+03
 5.4496346E+00  2.0579998E+03
 5.4717426E+00  2.0565171E+03
 5.4938507E+00  2.0551570E+03
 5.5159588E+00  2.0546331E+03
 5.5380669E+00  2.0562722E+03
 5.5601749E+00  2.0553943E+03
 5.5822830E+00  2.0526768E+03
 5.6043911E+00  2.0547522E+03
 5.6264992E+00  2.0570991E+03
 5.6486073E+00  2.0571755E+03
 5.6707153E+00  2.0547439E+03
 5.6928229E+00  2.0526946E+03
 5.7149310E+00  2.0510039E+03
 5.7370391E+00  2.0514805E+03
 5.7591472E+00  2.0502068E+03
 5.7812552E+00  2.0494915E+03
 5.8033633E+00  2.0503774E+03
 5.8254714E+00  2.0495242E+03
 5.8475795E+00  2.0511277E+03
 5.8696876E+00  2.0508118E+03
 5.8917956E+00  2.0482556E+03
 5.9139037E+00  2.0483040E+03
 5.9360118E+00  2.0493291E+03
 5.9581199E+00  2.0484294E+03
 5.9802279E+00  2.0469407E+03
 6.0023360E+00  2.0460682E+03
 6.0244441E+00  2.0446692E+03
 6.0465522E+00  2.0444186E+03
 6.0686603E+00  2.0451703E+03
 6.0907679E+00  2.0431512E+03
 6.1128759E+00  2.0397920E+03
 6.1349840E+00  2.0380245E+03
 6.1570921E+00  2.0374542E+03
 6.1792002E+00  2.0352672E+03
 6.2013083E+00  2.0354695E+03
 6.2234163E+00  2.0371285E+03
 6.2455244E+00  2.0393032E+03
 6.2676325E+00  2.0409141E+03
 6.2897406E+00  2.0411599E+03
 6.3118486E+00  2.0367192E+03
 6.3339567E+00  2.0348705E+03
 6.3560648E+00  2.0373455E+03
 6.3781729E+00  2.0408972E+03
 6.4002810E+00  2.0448795E+03
 6.4223890E+00  2.0462974E+03
 6.4444971E+00  2.0433619E+03
 6.4666047E+00  2.0376602E+03
 6.4887128E+00  2.0328701E+03
 6.5108209E+00  2.0317909E+03
 6.5329289E+00  2.0334667E+03
 6.5550370E+00  2.0323715E+03
 6.5771451E+00  2.0291340E+03
 6.5992532E+00  2.0275790E+03
 6.6213613E+00  2.0287090E+03
 6.6434693E+00  2.0301057E+03
 6.6655774E+00  2.0293752E+03
 6.6876855E+00  2.0267925E+03
 6.7097936E+00  2.0271637E+03
 6.7319016E+00  2.0263522E+03
 6.7540097E+00  2.0237167E+03
 6.7761178E+00  2.0223384E+03
 6.7982259E+00  2.0228250E+03
 6.8203340E+00  2.0217897E+03
 6.8424420E+00  2.0205427E+03
 6.8645496E+00  2.0192859E+03
 6.8866577E+00  2.0184626E+03
 6.9087658E+00  2.0183986E+03
 6.9308739E+00  2.0201465E+03
 6.9529819E+00  2.0198846E+03
 6.9750900E+00  2.0179705E+03
 6.9971981E+00  2.0158336E+03
 7.0193062E+00  2.0153832E+03
 7.0414143E+00  2.0145330E+03
 7.0635223E+00  2.0125835E+03
 7.0856304E+00  2.0126667E+03
 7.1077385E+00  2.0128215E+03
 7.1298466E+00  2.0109998E+03
 7.1519547E+00  2.0087281E+03
 7.1740627E+00  2.0085167E+03
 7.1961708E+00  2.0096351E+03
 7.2182789E+00  2.0100979E+03
 7.2403870E+00  2.0080215E+03
 7.2624946E+00  2.0084413E+03
 7.2846026E+00  2.0074287E+03
 7.3067107E+00  2.0047854E+03
 7.3288188E+00  2.0031202E+03
 7.3509269E+00  2.0021710E+03
 7.3730350E+00  2.0012211E+03
 7.3951430E+00  2.0017462E+03
 7.4172511E+00  2.0023557E+03
 7.4393592E+00  2.0030222E+03
 7.4614673E+00  2.0021798E+03
 7.4835753E+00  2.0016027E+03
 7.5056834E+00  1.9991970E+03
 7.5277915E+00  1.9972861E+03
 7.5498996E+00  1.9964912E+03
 7.5720077E+00  1.9960743E+03
 7.5941157E+00  1.9957769E+03
 7.6162238E+00  1.9974749E+03
 7.6383314E+00  1.9985668E+03
 7.6604395E+00  1.9984553E+03
 7.6825476E+00  1.9971865E+03
 7.7046556E+00  1.9975377E+03
 7.7267637E+00  1.9956051E+03
 7.7488718E+00  1.9943540E+03
 7.7709799E+00  1.9951387E+03
 7.7930880E+00  1.9949052E+03
 7.8151960E+00  1.9924254E+03
 7.8373041E+00  1.9906598E+03
 7.8594122E+00  1.9913427E+03
 7.8815203E+00  1.9922517E+03
 7.9036283E+00  1.9918654E+03
 7.9257364E+00  1.9909078E+03
 7.9478445E+00  1.9901959E+03
 7.9699526E+00  1.9895621E+03
 7.9920607E+00  1.9893409E+03
 8.0141687E+00  1.9894386E+03
 8.0362768E+00  1.9888170E+03
 8.0583849E+00  1.9881671E+03
 8.0804930E+00  1.9884460E+03
 8.1026011E+00  1.9885343E+03
 8.1247091E+00  1.9879714E+03
 8.1468172E+00  1.9885905E+03
 8.1689253E+00  1.9880331E+03
 8.1910334E+00  1.9867819E+03
 8.2131414E+00  1.9859945E+03
 8.2352486E+00  1.9856571E+03
 8.2573566E+00  1.9853855E+03
 8.2794647E+00  1.9852361E+03
 8.3015728E+00  1.9847186E+03
 8.3236809E+00  1.9862965E+03
 8.3457890E+00  1.9866042E+03
 8.3678970E+00  1.9868809E+03
 8.3900051E+00  1.9867482E+03
 8.4121132E+00  1.9864496E+03
 8.4342213E+00  1.9846864E+03
 8.4563293E+00  1.9858115E+03
 8.4784374E+00  1.9875188E+03
 8.5005455E+00  1.9891130E+03
 8.5226536E+00  1.9895073E+03
 8.5447617E+00  1.9916940E+03
 8.5668697E+00  1.9985188E+03
 8.5889778E+00  2.0056201E+03
 8.6110859E+00  2.0129393E+03
 8.6331940E+00  2.0205344E+03
 8.6553020E+00  2.0261299E+03
 8.6774101E+00  2.0274514E+03
 8.6995182E+00  2.0237365E+03
 8.7216263E+00  2.0173357E+03
 8.7437344E+00  2.0103497E+03
 8.7658424E+00  2.0051027E+03
 8.7879505E+00  2.0020087E+03
 8.8100586E+00  1.9988215E+03
 8.8321667E+00  1.9958876E+03
 8.8542747E+00  1.9932437E+03
 8.8763828E+00  1.9918931E+03
 8.8984909E+00  1.9895068E+03
 8.9205990E+00  1.9878677E+03
 8.9427071E+00  1.9889617E+03
 8.9648151E+00  1.9916848E+03
 8.9869232E+00  1.9979111E+03
 9.0090303E+00  2.0054287E+03
 9.0311384E+00  2.0119863E+03
 9.0532465E+00  2.0152201E+03
 9.0753546E+00  2.0154893E+03
 9.0974627E+00  2.0107823E+03
 9.1195707E+00  2.0051064E+03
 9.1416788E+00  2.0024606E+03
 9.1637869E+00  1.9985917E+03
 9.1858950E+00  1.9952460E+03
 9.2080030E+00  1.9929575E+03
 9.2301111E+00  1.9944998E+03
 9.2522192E+00  1.9956246E+03
 9.2743273E+00  1.9930471E+03
 9.2964354E+00  1.9904198E+03
 9.3185434E+00  1.9871040E+03
 9.3406515E+00  1.9858701E+03
 9.3627596E+00  1.9872711E+03
 9.3848677E+00  1.9885875E+03
 9.4069757E+00  1.9892274E+03
 9.4290838E+00  1.9890016E+03
 9.4511919E+00  1.9924082E+03
 9.4733000E+00  2.0113586E+03
 9.4954081E+00  2.0713247E+03
 9.5175161E+00  2.1015557E+03
 9.5396242E+00  2.1067900E+03
 9.5617323E+00  2.0347727E+03
 9.5838404E+00  2.0008513E+03
 9.6059484E+00  1.9979718E+03
 9.6280565E+00  1.9977864E+03
 9.6501646E+00  1.9975720E+03
 9.6722727E+00  1.9984865E+03
 9.6943808E+00  2.0007557E+03
 9.7164888E+00  2.0035660E+03
 9.7385969E+00  2.0040907E+03
 9.7607050E+00  2.0042573E+03
 9.7828131E+00  2.0042257E+03
 9.8049202E+00  2.0071908E+03
 9.8270283E+00  2.0100009E+03
 9.8491364E+00  2.0118490E+03
 9.8712444E+00  2.0149006E+03
 9.8933525E+00  2.0190261E+03
 9.9154606E+00  2.0248607E+03
 9.9375687E+00  2.0332241E+03
 9.9596767E+00  2.0429281E+03
 9.9817848E+00  2.0527505E+03
 1.0003893E+01  2.0591052E+03
 1.0026001E+01  2.0583992E+03
 1.0048109E+01  2.0590012E+03
 1.0070217E+01  2.0607249E+03
 1.0092325E+01  2.0601169E+03
 1.0114433E+01  2.0606611E+03
 1.0136541E+01  2.0579204E+03
 1.0158649E+01  2.0486072E+03
 1.0180758E+01  2.0383337E+03
 1.0202866E+01  2.0290529E+03
 1.0224974E+01  2.0218889E+03
 1.0247082E+01  2.0183031E+03
 1.0269190E+01  2.0158690E+03
 1.0291298E+01  2.0149220E+03
 1.0313406E+01  2.0137885E+03
 1.0335514E+01  2.0145957E+03
 1.0357622E+01  2.0154708E+03
 1.0379730E+01  2.0165513E+03
 1.0401838E+01  2.0178220E+03
 1.0423946E+01  2.0186206E+03
 1.0446054E+01  2.0210310E+03
 1.0468163E+01  2.0226652E+03
 1.0490271E+01  2.0250275E+03
 1.0512379E+01  2.0341581E+03
 1.0534487E+01  2.0525601E+03
 1.0556595E+01  2.0647666E+03
 1.0578702E+01  2.0535610E+03
 1.0600810E+01  2.0367998E+03
 1.0622918E+01  2.0360035E+03
 1.0645026E+01  2.0396012E+03
 1.0667134E+01  2.0430959E+03
 1.0689242E+01  2.0476428E+03
 1.0711350E+01  2.0492124E+03
 1.0733459E+01  2.0494419E+03
 1.0755567E+01  2.0537917E+03
 1.0777675E+01  2.0624885E+03
 1.0799783E+01  2.0693074E+03
 1.0821891E+01  2.0801069E+03
 1.0843999E+01  2.1046990E+03
 1.0866107E+01  2.1484180E+03
 1.0888215E+01  2.2036819E+03
 1.0910323E+01  2.2541064E+03
 1.0932431E+01  2.3125115E+03
 1.0954539E+01  2.4500828E+03
 1.0976647E+01  2.6245352E+03
 1.0998755E+01  2.7830396E+03
 1.1020864E+01  2.9606233E+03
 1.1042972E+01  3.1021313E+03
 1.1065080E+01  3.2218716E+03
 1.1087188E+01  3.2978809E+03
 1.1109296E+01  3.2855659E+03
 1.1131404E+01  3.1433062E+03
 1.1153512E+01  2.9364133E+03
 1.1175620E+01  2.7619775E+03
 1.1197728E+01  2.6033130E+03
 1.1219836E+01  2.4712407E+03
 1.1241944E+01  2.3404668E+03
 1.1264052E+01  2.2366934E+03
 1.1286160E+01  2.1881628E+03
 1.1308269E+01  2.1549492E+03
 1.1330377E+01  2.1321785E+03
 1.1352485E+01  2.1119763E+03
 1.1374592E+01  2.0960022E+03
 1.1396700E+01  2.0896021E+03
 1.1418808E+01  2.0855090E+03
 1.1440916E+01  2.0840454E+03
 1.1463024E+01  2.0857317E+03
 1.1485132E+01  2.0891804E+03
 1.1507240E+01  2.0935701E+03
 1.1529348E+01  2.0970662E+03
 1.1551456E+01  2.1020564E+03
 1.1573565E+01  2.1077961E+03
 1.1595673E+01  2.1142258E+03
 1.1617781E+01  2.1236609E+03
 1.1639889E+01  2.1324983E+03
 1.1661997E+01  2.1423430E+03
 1.1684105E+01  2.1552651E+03
 1.1706213E+01  2.1659688E+03
 1.1728321E+01  2.1692065E+03
 1.1750429E+01  2.1727625E+03
 1.1772537E+01  2.1800991E+03
 1.1794645E+01  2.1877495E+03
 1.1816753E+01  2.1926099E+03
 1.1838861E+01  2.1903647E+03
 1.1860970E+01  2.1776946E+03
 1.1883078E+01  2.1631196E+03
 1.1905186E+01  2.1499910E+03
 1.1927294E+01  2.1305127E+03
 1.1949402E+01  2.1100728E+03
 1.1971510E+01  2.0955903E+03
 1.1993618E+01  2.0885132E+03
 1.2015726E+01  2.0845920E+03
 1.2037834E+01  2.0818315E+03
 1.2059942E+01  2.0805745E+03
 1.2082050E+01  2.0800256E+03
 1.2104158E+01  2.0817402E+03
 1.2126266E+01  2.0832085E+03
 1.2148374E+01  2.0840979E+03
 1.2170482E+01  2.0868093E+03
 1.2192590E+01  2.0911494E+03
 1.2214698E+01  2.0934968E+03
 1.2236806E+01  2.0947324E+03
 1.2258914E+01  2.0970010E+03
 1.2281022E+01  2.0978406E+03
 1.2303130E+01  2.1008772E+03
 1.2325238E+01  2.1076270E+03
 1.2347346E+01  2.1135068E+03
 1.2369454E+01  2.1193547E+03
 1.2391562E+01  2.1275754E+03
 1.2413671E+01  2.1357612E+03
 1.2435779E+01  2.1437551E+03
 1.2457887E+01  2.1473132E+03
 1.2479995E+01  2.1476060E+03
 1.2502103E+01  2.1447292E+03
 1.2524211E+01  2.1438928E+03
 1.2546319E+01  2.1419631E+03
 1.2568427E+01  2.1444216E+03
 1.2590535E+01  2.1518567E+03
 1.2612643E+01  2.1743174E+03
 1.2634751E+01  2.2209656E+03
 1.2656859E+01  2.2862595E+03
 1.2678967E+01  2.3661565E+03
 1.2701076E+01  2.4395100E+03
 1.2723184E+01  2.4622163E+03
 1.2745292E+01  2.4466306E+03
 1.2767400E+01  2.4441492E+03
 1.2789508E+01  2.4768042E+03
 1.2811616E+01  2.5141133E+03
 1.2833724E+01  2.5238706E+03
 1.2855832E+01  2.4912136E+03
 1.2877940E+01  2.4310752E+03
 1.2900048E+01  2.3598342E+03
 1.2922156E+01  2.2848938E+03
 1.2944263E+01  2.2204102E+03
 1.2966372E+01  2.1736531E+03
 1.2988480E+01  2.1450706E+03
 1.3010588E+01  2.1290208E+03
 1.3032696E+01  2.1195742E+03
 1.3054804E+01  2.1154807E+03
 1.3076912E+01  2.1139187E+03
 1.3099020E+01  2.1119070E+03
 1.3121128E+01  2.1085000E+03
 1.3143236E+01  2.1067454E+03
 1.3165344E+01  2.1070247E+03
 1.3187452E+01  2.1068425E+03
 1.3209560E+01  2.1059221E+03
 1.3231668E+01  2.1059314E+03
 1.3253777E+01  2.1074595E+03
 1.3275885E+01  2.1095225E+03
 1.3297993E+01  2.1068979E+03
 1.3320101E+01  2.1040020E+03
 1.3342209E+01  2.1040090E+03
 1.3364317E+01  2.1049243E+03
 1.3386425E+01  2.1046089E+03
 1.3408533E+01  2.1047141E+03
 1.3430641E+01  2.1050183E+03
 1.3452749E+01  2.1050044E+03
 1.3474857E+01  2.1040762E+03
 1.3496965E+01  2.1027744E+03
 1.3519073E+01  2.1010444E+03
 1.3541182E+01  2.1000657E+03
 1.3563290E+01  2.1009241E+03
 1.3585398E+01  2.0997476E+03
 1.3607506E+01  2.0991008E+03
 1.3629614E+01  2.0989797E+03
 1.3651722E+01  2.1015483E+03
 1.3673830E+01  2.1026760E+03
 1.3695938E+01  2.1027959E+03
 1.3718045E+01  2.1045547E+03
 1.3740153E+01  2.1073230E+03
 1.3762261E+01  2.1096770E+03
 1.3784369E+01  2.1127576E+03
 1.3806478E+01  2.1151365E+03
 1.3828586E+01  2.1181912E+03
 1.3850694E+01  2.1210034E+03
 1.3872802E+01  2.1233271E+03
 1.3894910E+01  2.1243596E+03
 1.3917018E+01  2.1257485E+03
 1.3939126E+01  2.1271206E+03
 1.3961234E+01  2.1262617E+03
 1.3983342E+01  2.1238706E+03
 1.4005450E+01  2.1208464E+03
 1.4027558E+01  2.1190046E+03
 1.4049666E+01  2.1178704E+03
 1.4071774E+01  2.1163567E+03
 1.4093883E+01  2.1165161E+03
 1.4115991E+01  2.1158809E+03
 1.4138099E+01  2.1164854E+03
 1.4160207E+01  2.1188889E+03
 1.4182315E+01  2.1222927E+03
 1.4204423E+01  2.1238359E+03
 1.4226531E+01  2.1268608E+03
 1.4248639E+01  2.1312666E+03
 1.4270747E+01  2.1372549E+03
 1.4292855E+01  2.1422798E+03
 1.4314963E+01  2.1482786E+03
 1.4337071E+01  2.1531931E+03
 1.4359179E+01  2.1543828E+03
 1.4381288E+01  2.1522913E+03
 1.4403396E+01  2.1471746E+03
 1.4425504E+01  2.1396299E+03
 1.4447612E+01  2.1336670E+03
 1.4469720E+01  2.1291863E+03
 1.4491827E+01  2.1275762E+03
 1.4513935E+01  2.1264097E+03
 1.4536043E+01  2.1257556E+03
 1.4558151E+01  2.1249277E+03
 1.4580259E+01  2.1239658E+03
 1.4602367E+01  2.1242551E+03
 1.4624475E+01  2.1245518E+03
 1.4646584E+01  2.1235042E+03
 1.4668692E+01  2.1239836E+03
 1.4690800E+01  2.1262500E+03
 1.4712908E+01  2.1262517E+03
 1.4735016E+01  2.1260044E+03
 1.4757124E+01  2.1269070E+03
 1.4779232E+01  2.1267593E+03
 1.4801340E+01  2.1268882E+03
 1.4823448E+01  2.1270151E+03
 1.4845556E+01  2.1279529E+03
 1.4867664E+01  2.1292063E+03
 1.4889772E+01  2.1293518E+03
 1.4911880E+01  2.1294932E+03
 1.4933989E+01  2.1297930E+03
 1.4956097E+01  2.1324590E+03
 1.4978205E+01  2.1344014E+03
 1.5000313E+01  2.1345828E+03
 1.5022421E+01  2.1356731E+03
 1.5044529E+01  2.1365759E+03
 1.5066637E+01  2.1364714E+03
 1.5088745E+01  2.1361416E+03
 1.5110853E+01  2.1364597E+03
 1.5132961E+01  2.1380359E+03
 1.5155069E+01  2.1386609E+03
 1.5177177E+01  2.1393152E+03
 1.5199286E+01  2.1390344E+03
 1.5221394E+01  2.1402825E+03
 1.5243502E+01  2.1426113E+03
 1.5265610E+01  2.1413931E+03
 1.5287717E+01  2.1418867E+03
 1.5309825E+01  2.1445439E+03
 1.5331933E+01  2.1449219E+03
 1.5354041E+01  2.1444324E+03
 1.5376149E+01  2.1465564E+03
 1.5398257E+01  2.1484092E+03
 1.5420365E+01  2.1500073E+03
 1.5442473E+01  2.1508572E+03
 1.5464581E+01  2.1513931E+03
 1.5486690E+01  2.1529546E+03
 1.5508798E+01  2.1559441E+03
 1.5530906E+01  2.1586653E+03
 1.5553014E+01  2.1630745E+03
 1.5575122E+01  2.1684697E+03
 1.5597230E+01  2.1733047E+03
 1.5619338E+01  2.1792869E+03
 1.5641446E+01  2.1847026E+03
 1.5663554E+01  2.1860437E+03
 1.5685662E+01  2.1836816E+03
 1.5707770E+01  2.1806438E+03
 1.5729878E+01  2.1804980E+03
 1.5751987E+01  2.1817107E+03
 1.5774095E+01  2.1839880E+03
 1.5796203E+01  2.1860210E+03
 1.5818311E+01  2.1882822E+03
 1.5840419E+01  2.1905264E+03
 1.5862527E+01  2.1953308E+03
 1.5884635E+01  2.2015315E+03
 1.5906743E+01  2.2107803E+03
 1.5928851E+01  2.2240603E+03
 1.5950959E+01  2.2395916E+03
 1.5973067E+01  2.2551633E+03
 1.5995175E+01  2.2597493E+03
 1.6017282E+01  2.2494192E+03
 1.6039391E+01  2.2316855E+03
 1.6061499E+01  2.2149270E+03
 1.6083607E+01  2.1996877E+03
 1.6105715E+01  2.1872957E+03
 1.6127823E+01  2.1790293E+03
 1.6149931E+01  2.1730898E+03
 1.6172039E+01  2.1705854E+03
 1.6194147E+01  2.1663572E+03
 1.6216255E+01  2.1625725E+03
 1.6238363E+01  2.1623967E+03
 1.6260471E+01  2.1610659E+03
 1.6282579E+01  2.1598123E+03
 1.6304688E+01  2.1593154E+03
 1.6326796E+01  2.1593921E+03
 1.6348904E+01  2.1579619E+03
 1.6371012E+01  2.1579329E+03
 1.6393120E+01  2.1574470E+03
 1.6415228E+01  2.1566279E+03
 1.6437336E+01  2.1550920E+03
 1.6459444E+01  2.1534373E+03
 1.6481552E+01  2.1536616E+03
 1.6503660E+01  2.1548625E+03
 1.6525768E+01  2.1545962E+03
 1.6547876E+01  2.1567112E+03
 1.6569984E+01  2.1563850E+03
 1.6592093E+01  2.1561189E+03
 1.6614201E+01  2.1567441E+03
 1.6636309E+01  2.1563606E+03
 1.6658417E+01  2.1561013E+03
 1.6680525E+01  2.1546272E+03
 1.6702633E+01  2.1539023E+03
 1.6724741E+01  2.1534963E+03
 1.6746849E+01  2.1507192E+03
 1.6768957E+01  2.1489229E+03
 1.6791065E+01  2.1487039E+03
 1.6813173E+01  2.1479512E+03
 1.6835281E+01  2.1476184E+03
 1.6857389E+01  2.1480986E+03
 1.6879498E+01  2.1485920E+03
 1.6901606E+01  2.1499866E+03
 1.6923714E+01  2.1495195E+03
 1.6945822E+01  2.1486086E+03
 1.6967930E+01  2.1474954E+03
 1.6990038E+01  2.1461785E+03
 1.7012146E+01  2.1450952E+03
 1.7034254E+01  2.1454536E+03
 1.7056362E+01  2.1465598E+03
 1.7078470E+01  2.1470481E+03
 1.7100578E+01  2.1475464E+03
 1.7122686E+01  2.1483687E+03
 1.7144794E+01  2.1514185E+03
 1.7166903E+01  2.1555288E+03
 1.7189011E+01  2.1613521E+03
 1.7211119E+01  2.1691167E+03
 1.7233225E+01  2.1796169E+03
 1.7255333E+01  2.1901472E+03
 1.7277441E+01  2.1984709E+03
 1.7299549E+01  2.1997839E+03
 1.7321657E+01  2.1962861E+03
 1.7343765E+01  2.1926865E+03
 1.7365873E+01  2.1887151E+03
 1.7387981E+01  2.1850273E+03
 1.7410089E+01  2.1822361E+03
 1.7432198E+01  2.1795242E+03
 1.7454306E+01  2.1770146E+03
 1.7476414E+01  2.1727588E+03
 1.7498522E+01  2.1682546E+03
 1.7520630E+01  2.1636409E+03
 1.7542738E+01  2.1600154E+03
 1.7564846E+01  2.1557419E+03
 1.7586954E+01  2.1491802E+03
 1.7609062E+01  2.1441243E+03
 1.7631170E+01  2.1420613E+03
 1.7653278E+01  2.1395881E+03
 1.7675386E+01  2.1357336E+03
 1.7697495E+01  2.1336338E+03
 1.7719603E+01  2.1318076E+03
 1.7741711E+01  2.1303469E+03
 1.7763819E+01  2.1300308E+03
 1.7785927E+01  2.1300476E+03
 1.7808035E+01  2.1285210E+03
 1.7830143E+01  2.1278796E+03
 1.7852251E+01  2.1285986E+03
 1.7874359E+01  2.1316580E+03
 1.7896467E+01  2.1325894E+03
 1.7918575E+01  2.1362964E+03
 1.7940683E+01  2.1445876E+03
 1.7962791E+01  2.1585322E+03
 1.7984900E+01  2.1823606E+03
 1.8007008E+01  2.2311841E+03
 1.8029116E+01  2.2991465E+03
 1.8051224E+01  2.3582708E+03
 1.8073332E+01  2.4226958E+03
 1.8095440E+01  2.4919888E+03
 1.8117548E+01  2.5046475E+03
 1.8139656E+01  2.4741958E+03
 1.8161764E+01  2.4323872E+03
 1.8183872E+01  2.3823757E+03
 1.8205980E+01  2.3287380E+03
 1.8228088E+01  2.2554578E+03
 1.8250196E+01  2.1944585E+03
 1.8272305E+01  2.1601870E+03
 1.8294413E+01  2.1402124E+03
 1.8316521E+01  2.1260591E+03
 1.8338629E+01  2.1130154E+03
 1.8360737E+01  2.1023567E+03
 1.8382845E+01  2.0940115E+03
 1.8404953E+01  2.0870188E+03
 1.8427061E+01  2.0812671E+03
 1.8449169E+01  2.0764324E+03
 1.8471277E+01  2.0733850E+03
 1.8493385E+01  2.0712261E+03
 1.8515493E+01  2.0694641E+03
 1.8537601E+01  2.0652083E+03
 1.8559710E+01  2.0612932E+03
 1.8581818E+01  2.0600132E+03
 1.8603926E+01  2.0609163E+03
 1.8626034E+01  2.0625845E+03
 1.8648142E+01  2.0620669E+03
 1.8670250E+01  2.0599502E+03
 1.8692358E+01  2.0583643E+03
 1.8714466E+01  2.0559639E+03
 1.8736574E+01  2.0530127E+03
 1.8758682E+01  2.0472169E+03
 1.8780790E+01  2.0439082E+03
 1.8802896E+01  2.0434618E+03
 1.8825005E+01  2.0418386E+03
 1.8847113E+01  2.0395543E+03
 1.8869221E+01  2.0366445E+03
 1.8891329E+01  2.0319492E+03
 1.8913437E+01  2.0259557E+03
 1.8935545E+01  2.0198567E+03
 1.8957653E+01  2.0151862E+03
 1.8979761E+01  2.0100031E+03
 1.9001869E+01  2.0066584E+03
 1.9023977E+01  2.0041321E+03
 1.9046085E+01  2.0003939E+03
 1.9068193E+01  1.9961903E+03
 1.9090302E+01  1.9923176E+03
 1.9112410E+01  1.9912634E+03
 1.9134518E+01  1.9891667E+03
 1.9156626E+01  1.9865326E+03
 1.9178734E+01  1.9840070E+03
 1.9200842E+01  1.9820797E+03
 1.9222950E+01  1.9810190E+03
 1.9245058E+01  1.9800396E+03
 1.9267166E+01  1.9785314E+03
 1.9289274E+01  1.9765566E+03
 1.9311382E+01  1.9760220E+03
 1.9333490E+01  1.9758696E+03
 1.9355598E+01  1.9728134E+03
 1.9377707E+01  1.9690795E+03
 1.9399815E+01  1.9656210E+03
 1.9421923E+01  1.9634813E+03
 1.9444031E+01  1.9607390E+03
 1.9466139E+01  1.9579615E+03
 1.9488247E+01  1.9563060E+03
 1.9510355E+01  1.9551381E+03
 1.9532463E+01  1.9535283E+03
 1.9554571E+01  1.9515807E+03
 1.9576679E+01  1.9496659E+03
 1.9598787E+01  1.9483850E+03
 1.9620895E+01  1.9454335E+03
 1.9643003E+01  1.9429214E+03
 1.9665112E+01  1.9403472E+03
 1.9687220E+01  1.9363597E+03
 1.9709328E+01  1.9333574E+03
 1.9731436E+01  1.9306613E+03
 1.9753544E+01  1.9274055E+03
 1.9775652E+01  1.9260590E+03
 1.9797760E+01  1.9244117E+03
 1.9819868E+01  1.9226722E+03
 1.9841976E+01  1.9218085E+03
 1.9864084E+01  1.9208964E+03
 1.9886192E+01  1.9181743E+03
 1.9908300E+01  1.9158154E+03
 1.9930408E+01  1.9136460E+03
 1.9952517E+01  1.9123398E+03
 1.9974625E+01  1.9108090E+03
 1.9996733E+01  1.9089385E+03
 2.0018841E+01  1.9079640E+03
 2.0040949E+01  1.9066711E+03
 2.0063057E+01  1.9060089E+03
 2.0085165E+01  1.9039092E+03
 2.0107273E+01  1.9022223E+03
 2.0129381E+01  1.9020743E+03
 2.0151489E+01  1.9009518E+03
 2.0173597E+01  1.9002106E+03
 2.0195705E+01  1.8991217E+03
 2.0217813E+01  1.8969846E+03
 2.0239922E+01  1.8958495E+03
 2.0262030E+01  1.8936017E+03
 2.0284138E+01  1.8926312E+03
 2.0306246E+01  1.8931306E+03
 2.0328354E+01  1.8935138E+03
 2.0350462E+01  1.8949369E+03
 2.0372568E+01  1.8949918E+03
 2.0394676E+01  1.8937177E+03
 2.0416784E+01  1.8918207E+03
 2.0438892E+01  1.8881337E+03
 2.0461000E+01  1.8816743E+03
 2.0483109E+01  1.8777728E+03
 2.0505217E+01  1.8763279E+03
 2.0527325E+01  1.8746281E+03
 2.0549433E+01  1.8732609E+03
 2.0571541E+01  1.8712932E+03
 2.0593649E+01  1.8703079E+03
 2.0615757E+01  1.8693351E+03
 2.0637865E+01  1.8665885E+03
 2.0659973E+01  1.8640824E+03
 2.0682081E+01  1.8624773E+03
 2.0704189E+01  1.8614557E+03
 2.0726297E+01  1.8602869E+03
 2.0748405E+01  1.8595793E+03
 2.0770514E+01  1.8591577E+03
 2.0792622E+01  1.8576083E+03
 2.0814730E+01  1.8559318E+03
 2.0836838E+01  1.8570883E+03
 2.0858946E+01  1.8578978E+03
 2.0881054E+01  1.8579509E+03
 2.0903162E+01  1.8581151E+03
 2.0925270E+01  1.8593209E+03
 2.0947378E+01  1.8601735E+03
 2.0969486E+01  1.8620144E+03
 2.0991594E+01  1.8673561E+03
 2.1013702E+01  1.8720275E+03
 2.1035810E+01  1.8757419E+03
 2.1057919E+01  1.8818406E+03
 2.1080027E+01  1.8909667E+03
 2.1102135E+01  1.8993652E+03
 2.1124243E+01  1.9077412E+03
 2.1146351E+01  1.9198009E+03
 2.1168459E+01  1.9318203E+03
 2.1190567E+01  1.9426580E+03
 2.1212675E+01  1.9572584E+03
 2.1234783E+01  1.9784692E+03
 2.1256891E+01  1.9982079E+03
 2.1278999E+01  2.0205250E+03
 2.1301107E+01  2.0644702E+03
 2.1323215E+01  2.1279761E+03
 2.1345324E+01  2.1943701E+03
 2.1367432E+01  2.2075889E+03
 2.1389540E+01  2.1627854E+03
 2.1411648E+01  2.1016023E+03
 2.1433756E+01  2.0531462E+03
 2.1455864E+01  2.0315922E+03
 2.1477972E+01  2.0020656E+03
 2.1500080E+01  1.9571217E+03
 2.1522188E+01  1.9162620E+03
 2.1544296E+01  1.8877729E+03
 2.1566404E+01  1.8670138E+03
 2.1588512E+01  1.8502152E+03
 2.1610620E+01  1.8369169E+03
 2.1632729E+01  1.8266211E+03
 2.1654837E+01  1.8186597E+03
 2.1676945E+01  1.8110398E+03
 2.1699053E+01  1.8046707E+03
 2.1721161E+01  1.7999326E+03
 2.1743269E+01  1.7960043E+03
 2.1765377E+01  1.7924734E+03
 2.1787485E+01  1.7903936E+03
 2.1809593E+01  1.7871893E+03
 2.1831701E+01  1.7854385E+03
 2.1853809E+01  1.7837568E+03
 2.1875917E+01  1.7812190E+03
 2.1898026E+01  1.7789620E+03
 2.1920134E+01  1.7792239E+03
 2.1942240E+01  1.7783296E+03
 2.1964348E+01  1.7759886E+03
 2.1986456E+01  1.7758762E+03
 2.2008564E+01  1.7754204E+03
 2.2030672E+01  1.7748027E+03
 2.2052780E+01  1.7766217E+03
 2.2074888E+01  1.7813954E+03
 2.2096996E+01  1.7937795E+03
 2.2119104E+01  1.8210300E+03
 2.2141212E+01  1.8450256E+03
 2.2163321E+01  1.8455684E+03
 2.2185429E+01  1.8323135E+03
 2.2207537E+01  1.8159735E+03
 2.2229645E+01  1.8030205E+03
 2.2251753E+01  1.7941478E+03
 2.2273861E+01  1.7860161E+03
 2.2295969E+01  1.7764150E+03
 2.2318077E+01  1.7681033E+03
 2.2340185E+01  1.7605435E+03
 2.2362293E+01  1.7542013E+03
 2.2384401E+01  1.7499662E+03
 2.2406509E+01  1.7461318E+03
 2.2428617E+01  1.7410712E+03
 2.2450726E+01  1.7391110E+03
 2.2472834E+01  1.7362079E+03
 2.2494942E+01  1.7336169E+03
 2.2517050E+01  1.7318743E+03
 2.2539158E+01  1.7301826E+03
 2.2561266E+01  1.7281156E+03
 2.2583374E+01  1.7273121E+03
 2.2605482E+01  1.7263749E+03
 2.2627590E+01  1.7237654E+03
 2.2649698E+01  1.7220709E+03
 2.2671806E+01  1.7207898E+03
 2.2693914E+01  1.7190895E+03
 2.2716022E+01  1.7166720E+03
 2.2738131E+01  1.7136693E+03
 2.2760239E+01  1.7106357E+03
 2.2782347E+01  1.7080417E+03
 2.2804455E+01  1.7057042E+03
 2.2826563E+01  1.7061918E+03
 2.2848671E+01  1.7025985E+03
 2.2870779E+01  1.7011038E+03
 2.2892887E+01  1.6990901E+03
 2.2914995E+01  1.6960663E+03
 2.2937103E+01  1.6948448E+03
 2.2959211E+01  1.6955149E+03
 2.2981319E+01  1.6922506E+03
 2.3003428E+01  1.6919124E+03
 2.3025536E+01  1.6903960E+03
 2.3047644E+01  1.6870942E+03
 2.3069752E+01  1.6866647E+03
 2.3091860E+01  1.6858010E+03
 2.3113968E+01  1.6829999E+03
 2.3136076E+01  1.6541503E+03
 2.3158184E+01  1.5596014E+03
 2.3180292E+01  1.4696193E+03
 2.3202400E+01  1.4056097E+03
 2.3224508E+01  1.3674142E+03
 2.3246616E+01  1.3314915E+03
 2.3268724E+01  1.2910626E+03
 2.3290833E+01  1.2526760E+03
 2.3312941E+01  1.2428031E+03
 2.3335049E+01  1.2233490E+03
 2.3357157E+01  1.2026207E+03
 2.3379265E+01  1.1807937E+03
 2.3401373E+01  1.1631968E+03
 2.3423481E+01  1.1423171E+03
 2.3445589E+01  1.1238102E+03
 2.3467697E+01  1.1076628E+03
 2.3489805E+01  1.0920704E+03
 2.3511911E+01  1.0793169E+03
 2.3534019E+01  1.0789808E+03
 2.3556128E+01  1.0721891E+03
 2.3578236E+01  1.0667273E+03
 2.3600344E+01  1.0589504E+03
 2.3622452E+01  1.0527775E+03
 2.3644560E+01  1.0446075E+03
 2.3666668E+01  1.0392432E+03
 2.3688776E+01  1.0308475E+03
 2.3710884E+01  1.0254767E+03
 2.3732992E+01  1.0194264E+03
 2.3755100E+01  1.0151371E+03
 2.3777208E+01  1.0109458E+03
 2.3799316E+01  1.0084915E+03
 2.3821424E+01  1.0058635E+03
 2.3843533E+01  1.0037180E+03
 2.3865641E+01  1.0040014E+03
 2.3887749E+01  1.0028771E+03
 2.3909857E+01  1.0032346E+03
 2.3931965E+01  1.0017800E+03
 2.3954073E+01  1.0019440E+03
 2.3976181E+01  1.0010449E+03
 2.3998289E+01  1.0004265E+03
 2.4020397E+01  9.9946130E+02
 2.4042505E+01  9.9894647E+02
 2.4064613E+01  9.9491949E+02
 2.4086721E+01  9.9316425E+02
 2.4108829E+01  9.8816571E+02
 2.4130938E+01  9.8172900E+02
 2.4153046E+01  9.7501575E+02
 2.4175154E+01  9.6370740E+02
 2.4197262E+01  9.5280493E+02
 2.4219370E+01  9.4224738E+02
 2.4241478E+01  9.2897223E+02
 2.4263586E+01  9.1625885E+02
 2.4285694E+01  9.0309436E+02
 2.4307802E+01  8.8799890E+02
 2.4329910E+01  8.7290704E+02
 2.4352018E+01  8.5662622E+02
 2.4374126E+01  8.3816962E+02
 2.4396235E+01  8.1907300E+02
 2.4418343E+01  7.9943561E+02
 2.4440451E+01  7.8765167E+02
 2.4462559E+01  7.6663287E+02
 2.4484667E+01  7.4144214E+02
 2.4506775E+01  7.1966986E+02
 2.4528883E+01  6.8694049E+02
 2.4550991E+01  6.6251849E+02
 2.4573099E+01  6.1887134E+02
 2.4595207E+01  5.7866144E+02
 2.4617315E+01  5.2958093E+02
 2.4639423E+01  4.9628711E+02
 2.4661531E+01  4.5733347E+02
 2.4683640E+01  4.0656100E+02
 2.4705748E+01  3.4272141E+02
 2.4727856E+01  2.6118204E+02
 2.4749964E+01  1.3046793E+02
 2.4772072E+01  2.2504194E+01
 2.4794180E+01  3.4728374E-02
 2.4816288E+01  0.0000000E+00
 2.4838396E+01  0.0000000E+00
 2.4860504E+01  0.0000000E+00
 2.4882612E+01  0.0000000E+00
 2.4904720E+01  0.0000000E+00
 2.4926828E+01  0.0000000E+00
 2.4948936E+01  0.0000000E+00
 2.4971045E+01  0.0000000E+00
 2.4993153E+01  0.0000000E+00
 2.5015261E+01  0.0000000E+00
 2.5037369E+01  0.0000000E+00
 2.5059477E+01  0.0000000E+00
 2.5081583E+01  0.0000000E+00
 2.5103691E+01  0.0000000E+00
 2.5125799E+01  0.0000000E+00
 2.5147907E+01  0.0000000E+00
 2.5170015E+01  0.0000000E+00
 2.5192123E+01  0.0000000E+00
 2.5214231E+01  0.0000000E+00
 2.5236340E+01  0.0000000E+00
 2.5258448E+01  0.0000000E+00
 2.5280556E+01  0.0000000E+00
 2.5302664E+01  0.0000000E+00
 2.5324772E+01  0.0000000E+00
 2.5346880E+01  0.0000000E+00
 2.5368988E+01  0.0000000E+00
 2.5391096E+01  0.0000000E+00
 2.5413204E+01  0.0000000E+00
 2.5435312E+01  0.0000000E+00
 2.5457420E+01  0.0000000E+00
 2.5479528E+01  0.0000000E+00
 2.5501637E+01  0.0000000E+00
 2.5523745E+01  0.0000000E+00
 2.5545853E+01  0.0000000E+00
 2.5567961E+01  0.0000000E+00
 2.5590069E+01  0.0000000E+00
 2.5612177E+01  0.0000000E+00
 2.5634285E+01  0.0000000E+00
 2.5656393E+01  0.0000000E+00
 2.5678501E+01  0.0000000E+00
 2.5700609E+01  0.0000000E+00
 2.5722717E+01  0.0000000E+00
 2.5744825E+01  0.0000000E+00
 2.5766933E+01  0.0000000E+00
 2.5789042E+01  0.0000000E+00
 2.5811150E+01  0.0000000E+00
 2.5833258E+01  0.0000000E+00
 2.5855366E+01  0.0000000E+00
 2.5877474E+01  0.0000000E+00
 2.5899582E+01  0.0000000E+00
 2.5921690E+01  0.0000000E+00
 2.5943798E+01  0.0000000E+00
 2.5965906E+01  0.0000000E+00
 2.5988014E+01  0.0000000E+00
 2.6010122E+01  0.0000000E+00
 2.6032230E+01  0.0000000E+00
 2.6054338E+01  0.0000000E+00
 2.6076447E+01  0.0000000E+00
 2.6098555E+01  0.0000000E+00
 2.6120663E+01  0.0000000E+00
 2.6142771E+01  0.0000000E+00
 2.6164879E+01  0.0000000E+00
 2.6186987E+01  0.0000000E+00
 2.6209095E+01  0.0000000E+00
 2.6231203E+01  0.0000000E+00
 2.6253311E+01  0.0000000E+00
 2.6275419E+01  0.0000000E+00
 2.6297527E+01  0.0000000E+00
 2.6319635E+01  0.0000000E+00
 2.6341743E+01  0.0000000E+00
 2.6363852E+01  0.0000000E+00
 2.6385960E+01  0.0000000E+00
 2.6408068E+01  0.0000000E+00
 2.6430176E+01  0.0000000E+00
 2.6452284E+01  0.0000000E+00
 2.6474392E+01  0.0000000E+00
 2.6496500E+01  0.0000000E+00
 2.6518608E+01  0.0000000E+00
 2.6540716E+01  0.0000000E+00
 2.6562824E+01  0.0000000E+00
 2.6584932E+01  0.0000000E+00
 2.6607040E+01  0.0000000E+00
 2.6629147E+01  0.0000000E+00
 2.6651255E+01  0.0000000E+00
 2.6673363E+01  0.0000000E+00
 2.6695471E+01  0.0000000E+00
 2.6717579E+01  0.0000000E+00
 2.6739687E+01  0.0000000E+00
 2.6761795E+01  0.0000000E+00
 2.6783903E+01  0.0000000E+00
 2.6806011E+01  0.0000000E+00
 2.6828119E+01  0.0000000E+00
 2.6850227E+01  0.0000000E+00
 2.6872335E+01  0.0000000E+00
 2.6894444E+01  0.0000000E+00
 2.6916552E+01  0.0000000E+00
 2.6938660E+01  0.0000000E+00
 2.6960768E+01  0.0000000E+00
 2.6982876E+01  0.0000000E+00
 2.7004984E+01  0.0000000E+00
 2.7027092E+01  0.0000000E+00
 2.7049200E+01  0.0000000E+00
 2.7071308E+01  0.0000000E+00
 2.7093416E+01  0.0000000E+00
 2.7115524E+01  0.0000000E+00
 2.7137632E+01  0.0000000E+00
 2.7159740E+01  0.0000000E+00
 2.7181849E+01  0.0000000E+00
 2.7203957E+01  0.0000000E+00
 2.7226065E+01  0.0000000E+00
 2.7248173E+01  0.0000000E+00
 2.7270281E+01  0.0000000E+00
 2.7292389E+01  0.0000000E+00
 2.7314497E+01  0.0000000E+00
 2.7336605E+01  0.0000000E+00
 2.7358713E+01  0.0000000E+00
 2.7380821E+01  0.0000000E+00
 2.7402929E+01  0.0000000E+00
 2.7425037E+01  0.0000000E+00
 2.7447145E+01  0.0000000E+00
 2.7469254E+01  0.0000000E+00
 2.7491362E+01  0.0000000E+00
 2.7513470E+01  0.0000000E+00
 2.7535578E+01  0.0000000E+00
 2.7557686E+01  0.0000000E+00
 2.7579794E+01  0.0000000E+00
 2.7601902E+01  0.0000000E+00
 2.7624010E+01  0.0000000E+00
 2.7646118E+01  0.0000000E+00
 2.7668226E+01  0.0000000E+00
 2.7690334E+01  0.0000000E+00
 2.7712442E+01  0.0000000E+00
 2.7734550E+01  0.0000000E+00
 2.7756659E+01  0.0000000E+00
 2.7778767E+01  0.0000000E+00
 2.7800875E+01  0.0000000E+00
 2.7822983E+01  0.0000000E+00
 2.7845091E+01  0.0000000E+00
 2.7867199E+01  0.0000000E+00
 2.7889307E+01  0.0000000E+00
 2.7911415E+01  0.0000000E+00
 2.7933523E+01  0.0000000E+00
 2.7955631E+01  0.0000000E+00
 2.7977739E+01  0.0000000E+00
 2.7999847E+01  0.0000000E+00
 2.8021955E+01  0.0000000E+00
 2.8044064E+01  0.0000000E+00
 2.8066172E+01  0.0000000E+00
 2.8088280E+01  0.0000000E+00
 2.8110388E+01  0.0000000E+00
 2.8132496E+01  0.0000000E+00
 2.8154604E+01  0.0000000E+00
 2.8176712E+01  0.0000000E+00
 2.8198818E+01  0.0000000E+00
 2.8220926E+01  0.0000000E+00
 2.8243034E+01  0.0000000E+00
 2.8265142E+01  0.0000000E+00
 2.8287251E+01  0.0000000E+00
 2.8309359E+01  0.0000000E+00
 2.8331467E+01  0.0000000E+00
 2.8353575E+01  0.0000000E+00
 2.8375683E+01  0.0000000E+00
 2.8397791E+01  0.0000000E+00
 2.8419899E+01  0.0000000E+00
 2.8442007E+01  0.0000000E+00
 2.8464115E+01  0.0000000E+00
 2.8486223E+01  0.0000000E+00
 2.8508331E+01  0.0000000E+00
 2.8530439E+01  0.0000000E+00
 2.8552547E+01  0.0000000E+00
 2.8574656E+01  0.0000000E+00
 2.8596764E+01  0.0000000E+00
 2.8618872E+01  0.0000000E+00
 2.8640980E+01  0.0000000E+00
 2.8663088E+01  0.0000000E+00
 2.8685196E+01  0.0000000E+00
 2.8707304E+01  0.0000000E+00
 2.8729412E+01  0.0000000E+00
 2.8751520E+01  0.0000000E+00
 2.8773628E+01  0.0000000E+00
 2.8795736E+01  0.0000000E+00
 2.8817844E+01  0.0000000E+00
 2.8839952E+01  0.0000000E+00
 2.8862061E+01  0.0000000E+00
 2.8884169E+01  0.0000000E+00
 2.8906277E+01  0.0000000E+00
 2.8928385E+01  0.0000000E+00
 2.8950493E+01  0.0000000E+00
 2.8972601E+01  0.0000000E+00
 2.8994709E+01  0.0000000E+00
 2.9016817E+01  0.0000000E+00
 2.9038925E+01  0.0000000E+00
 2.9061033E+01  0.0000000E+00
 2.9083141E+01  0.0000000E+00
 2.9105249E+01  0.0000000E+00
 2.9127357E+01  0.0000000E+00
 2.9149466E+01  0.0000000E+00
 2.9171574E+01  0.0000000E+00
 2.9193682E+01  0.0000000E+00
 2.9215790E+01  0.0000000E+00
 2.9237898E+01  0.0000000E+00
 2.9260006E+01  0.0000000E+00
 2.9282114E+01  0.0000000E+00
 2.9304222E+01  0.0000000E+00
 2.9326330E+01  0.0000000E+00
 2.9348438E+01  0.0000000E+00
 2.9370546E+01  0.0000000E+00
 2.9392654E+01  0.0000000E+00
 2.9414762E+01  0.0000000E+00
 2.9436871E+01  0.0000000E+00
 2.9458979E+01  0.0000000E+00
 2.9481087E+01  0.0000000E+00
 2.9503195E+01  0.0000000E+00
 2.9525303E+01  0.0000000E+00
 2.9547411E+01  0.0000000E+00
 2.9569519E+01  0.0000000E+00
 2.9591627E+01  0.0000000E+00
 2.9613735E+01  0.0000000E+00
 2.9635843E+01  0.0000000E+00
 2.9657951E+01  0.0000000E+00
 2.9680059E+01  0.0000000E+00
 2.9702168E+01  0.0000000E+00
 2.9724276E+01  0.0000000E+00
 2.9746384E+01  0.0000000E+00
 2.9768490E+01  0.0000000E+00
 2.9790598E+01  0.0000000E+00
 2.9812706E+01  0.0000000E+00
 2.9834814E+01  0.0000000E+00
 2.9856922E+01  0.0000000E+00
 2.9879030E+01  0.0000000E+00
 2.9901138E+01  0.0000000E+00
 2.9923246E+01  0.0000000E+00
 2.9945354E+01  0.0000000E+00
 2.9967463E+01  0.0000000E+00
 2.9989571E+01  0.0000000E+00
 3.0011679E+01  0.0000000E+00
 3.0033787E+01  0.0000000E+00
 3.0055895E+01  0.0000000E+00
 3.0078003E+01  0.0000000E+00
 3.0100111E+01  0.0000000E+00
 3.0122219E+01  0.0000000E+00
 3.0144327E+01  0.0000000E+00
 3.0166435E+01  0.0000000E+00
 3.0188543E+01  0.0000000E+00
 3.0210651E+01  0.0000000E+00
 3.0232759E+01  0.0000000E+00
 3.0254868E+01  0.0000000E+00
 3.0276976E+01  0.0000000E+00
 3.0299084E+01  0.0000000E+00
 3.0321192E+01  0.0000000E+00
 3.0343300E+01  0.0000000E+00
 3.0365408E+01  0.0000000E+00
 3.0387516E+01  0.0000000E+00
 3.0409624E+01  0.0000000E+00
 3.0431732E+01  0.0000000E+00
 3.0453840E+01  0.0000000E+00
 3.0475948E+01  0.0000000E+00
 3.0498056E+01  0.0000000E+00
 3.0520164E+01  0.0000000E+00
 3.0542273E+01  0.0000000E+00
 3.0564381E+01  0.0000000E+00
 3.0586489E+01  0.0000000E+00
 3.0608597E+01  0.0000000E+00
 3.0630705E+01  0.0000000E+00
 3.0652813E+01  0.0000000E+00
 3.0674921E+01  0.0000000E+00
 3.0697029E+01  0.0000000E+00
 3.0719137E+01  0.0000000E+00
 3.0741245E+01  0.0000000E+00
 3.0763353E+01  0.0000000E+00
 3.0785461E+01  0.0000000E+00
 3.0807570E+01  0.0000000E+00
 3.0829678E+01  0.0000000E+00
 3.0851786E+01  0.0000000E+00
 3.0873894E+01  0.0000000E+00
 3.0896002E+01  0.0000000E+00
 3.0918110E+01  0.0000000E+00
 3.0940218E+01  0.0000000E+00
 3.0962326E+01  0.0000000E+00
 3.0984434E+01  0.0000000E+00
 3.1006542E+01  0.0000000E+00
 3.1028650E+01  0.0000000E+00
 3.1050758E+01  0.0000000E+00
 3.1072866E+01  0.0000000E+00
 3.1094975E+01  0.0000000E+00
 3.1117083E+01  0.0000000E+00
 3.1139191E+01  0.0000000E+00
 3.1161299E+01  0.0000000E+00
 3.1183407E+01  0.0000000E+00
 3.1205515E+01  0.0000000E+00
 3.1227623E+01  0.0000000E+00
 3.1249731E+01  0.0000000E+00
 3.1271839E+01  0.0000000E+00
 3.1293947E+01  0.0000000E+00
 3.1316055E+01  0.0000000E+00
 3.1338161E+01  0.0000000E+00
 3.1360270E+01  0.0000000E+00
 3.1382378E+01  0.0000000E+00
 3.1404486E+01  0.0000000E+00
 3.1426594E+01  0.0000000E+00
 3.1448702E+01  0.0000000E+00
 3.1470810E+01  0.0000000E+00
 3.1492918E+01  0.0000000E+00
 3.1515026E+01  0.0000000E+00
 3.1537134E+01  0.0000000E+00
 3.1559242E+01  0.0000000E+00
 3.1581350E+01  0.0000000E+00
 3.1603458E+01  0.0000000E+00
 3.1625566E+01  0.0000000E+00
 3.1647675E+01  0.0000000E+00
 3.1669783E+01  0.0000000E+00
 3.1691891E+01  0.0000000E+00
 3.1713999E+01  0.0000000E+00
 3.1736107E+01  0.0000000E+00
 3.1758215E+01  0.0000000E+00
 3.1780323E+01  0.0000000E+00
 3.1802431E+01  0.0000000E+00
 3.1824539E+01  0.0000000E+00
 3.1846647E+01  0.0000000E+00
 3.1868755E+01  0.0000000E+00
 3.1890863E+01  0.0000000E+00
 3.1912971E+01  0.0000000E+00
 3.1935080E+01  0.0000000E+00
 3.1957188E+01  0.0000000E+00
 3.1979296E+01  0.0000000E+00
 3.2001404E+01  0.0000000E+00
 3.2023514E+01  0.0000000E+00
 3.2045620E+01  0.0000000E+00
 3.2067730E+01  0.0000000E+00
 3.2089836E+01  0.0000000E+00
 3.2111942E+01  0.0000000E+00
 3.2134052E+01  0.0000000E+00
 3.2156158E+01  0.0000000E+00
 3.2178268E+01  0.0000000E+00
 3.2200375E+01  0.0000000E+00
 3.2222485E+01  0.0000000E+00
 3.2244591E+01  0.0000000E+00
 3.2266701E+01  0.0000000E+00
 3.2288807E+01  0.0000000E+00
 3.2310917E+01  0.0000000E+00
 3.2333023E+01  0.0000000E+00
 3.2355133E+01  0.0000000E+00
 3.2377239E+01  0.0000000E+00
 3.2399349E+01  0.0000000E+00
 3.2421455E+01  0.0000000E+00
 3.2443565E+01  0.0000000E+00
 3.2465672E+01  0.0000000E+00
 3.2487782E+01  0.0000000E+00
 3.2509888E+01  0.0000000E+00
 3.2531998E+01  0.0000000E+00
 3.2554104E+01  0.0000000E+00
 3.2576214E+01  0.0000000E+00
 3.2598320E+01  0.0000000E+00
 3.2620430E+01  0.0000000E+00
 3.2642536E+01  0.0000000E+00
 3.2664646E+01  0.0000000E+00
 3.2686752E+01  0.0000000E+00
 3.2708862E+01  0.0000000E+00
 3.2730968E+01  0.0000000E+00
