D:\DATA\UserData\CuiTian20190403\CWH\BA\BA_2.tif: 2-theta Scan
2-Theta Angle (Degrees)
Intensity
       1128
 1.1673023E-02  4.5292980E+01
 3.5019070E-02  4.5643444E+01
 5.8365114E-02  4.4181957E+01
 8.1711166E-02  4.0383869E+01
 1.0505721E-01  3.8351086E+01
 1.2840326E-01  3.7339809E+01
 1.5174930E-01  3.6947346E+01
 1.7509535E-01  3.7930832E+01
 1.9844139E-01  3.7261585E+01
 2.2178744E-01  3.7009182E+01
 2.4513349E-01  3.8616592E+01
 2.6847953E-01  3.8721737E+01
 2.9182559E-01  3.7254894E+01
 3.1517163E-01  3.6705513E+01
 3.3851767E-01  3.6979679E+01
 3.6186370E-01  3.7286049E+01
 3.8520977E-01  3.6421124E+01
 4.0855581E-01  3.6115620E+01
 4.3190184E-01  3.6905621E+01
 4.5524791E-01  3.7718273E+01
 4.7859395E-01  3.8106312E+01
 5.0194001E-01  3.8389996E+01
 5.2528602E-01  3.7870228E+01
 5.4863209E-01  3.7620102E+01
 5.7197815E-01  3.7273277E+01
 5.9532416E-01  3.7089848E+01
 6.1867023E-01  3.7434875E+01
 6.4201629E-01  3.7586620E+01
 6.6536230E-01  3.7659973E+01
 6.8870836E-01  3.7844296E+01
 7.1205443E-01  3.7802982E+01
 7.3540044E-01  3.7452095E+01
 7.5874650E-01  3.7343433E+01
 7.8209257E-01  3.7283424E+01
 8.0543858E-01  3.7092125E+01
 8.2878464E-01  3.6981514E+01
 8.5213071E-01  3.7668926E+01
 8.7547672E-01  3.7974770E+01
 8.9882278E-01  3.7985771E+01
 9.2216885E-01  3.7495731E+01
 9.4551486E-01  3.6848412E+01
 9.6886092E-01  3.7467377E+01
 9.9220699E-01  3.7850559E+01
 1.0155530E+00  3.7535183E+01
 1.0388991E+00  3.7706284E+01
 1.0622451E+00  3.7851700E+01
 1.0855912E+00  3.7496731E+01
 1.1089371E+00  3.7754879E+01
 1.1322832E+00  3.8279881E+01
 1.1556293E+00  3.7894619E+01
 1.1789753E+00  3.7790230E+01
 1.2023214E+00  3.8245258E+01
 1.2256675E+00  3.8280437E+01
 1.2490134E+00  3.8552273E+01
 1.2723595E+00  3.8792213E+01
 1.2957056E+00  3.9343761E+01
 1.3190516E+00  3.9036335E+01
 1.3423977E+00  3.8315208E+01
 1.3657438E+00  3.8307220E+01
 1.3890897E+00  3.8885185E+01
 1.4124358E+00  3.9413197E+01
 1.4357818E+00  4.0056007E+01
 1.4591279E+00  4.0225491E+01
 1.4824740E+00  4.0245312E+01
 1.5058200E+00  4.0473034E+01
 1.5291660E+00  4.0125233E+01
 1.5525120E+00  4.0372498E+01
 1.5758581E+00  4.0487862E+01
 1.5992042E+00  4.0301708E+01
 1.6225502E+00  4.0551422E+01
 1.6458963E+00  4.0784359E+01
 1.6692423E+00  4.0760506E+01
 1.6925883E+00  4.0901257E+01
 1.7159344E+00  4.1212353E+01
 1.7392805E+00  4.1662548E+01
 1.7626265E+00  4.1954193E+01
 1.7859726E+00  4.2057514E+01
 1.8093185E+00  4.3096813E+01
 1.8326646E+00  4.4404358E+01
 1.8560107E+00  4.5424320E+01
 1.8793567E+00  4.7373978E+01
 1.9027028E+00  5.3499630E+01
 1.9260489E+00  6.7994148E+01
 1.9493948E+00  8.9875130E+01
 1.9727409E+00  1.1520911E+02
 1.9960870E+00  1.4222311E+02
 2.0194330E+00  1.6615587E+02
 2.0427790E+00  1.8967148E+02
 2.0661252E+00  2.1473857E+02
 2.0894711E+00  2.3898921E+02
 2.1128173E+00  2.6540927E+02
 2.1361632E+00  2.9724704E+02
 2.1595092E+00  3.2846078E+02
 2.1828554E+00  3.6302548E+02
 2.2062013E+00  4.0246689E+02
 2.2295475E+00  4.3660367E+02
 2.2528934E+00  4.6296637E+02
 2.2762394E+00  4.8696436E+02
 2.2995856E+00  5.1024911E+02
 2.3229315E+00  5.3068683E+02
 2.3462777E+00  5.5063947E+02
 2.3696237E+00  5.7181976E+02
 2.3929698E+00  5.9184595E+02
 2.4163158E+00  6.1117352E+02
 2.4396617E+00  6.3062555E+02
 2.4630079E+00  6.4829248E+02
 2.4863539E+00  6.6528461E+02
 2.5097001E+00  6.8481622E+02
 2.5330460E+00  7.0348761E+02
 2.5563920E+00  7.2115887E+02
 2.5797381E+00  7.3782111E+02
 2.6030841E+00  7.5435895E+02
 2.6264303E+00  7.6948938E+02
 2.6497762E+00  7.8295026E+02
 2.6731224E+00  7.9699286E+02
 2.6964684E+00  8.1226837E+02
 2.7198143E+00  8.2551184E+02
 2.7431605E+00  8.3797552E+02
 2.7665064E+00  8.5181616E+02
 2.7898526E+00  8.6782031E+02
 2.8131986E+00  8.8205865E+02
 2.8365445E+00  8.9448761E+02
 2.8598907E+00  9.0548041E+02
 2.8832366E+00  9.1783496E+02
 2.9065828E+00  9.3101111E+02
 2.9299288E+00  9.4322955E+02
 2.9532750E+00  9.5463306E+02
 2.9766209E+00  9.6415826E+02
 2.9999669E+00  9.7320117E+02
 3.0233130E+00  9.8465375E+02
 3.0466590E+00  9.9613171E+02
 3.0700052E+00  1.0053271E+03
 3.0933511E+00  1.0141542E+03
 3.1166971E+00  1.0248102E+03
 3.1400433E+00  1.0332222E+03
 3.1633892E+00  1.0408591E+03
 3.1867354E+00  1.0508279E+03
 3.2100813E+00  1.0601827E+03
 3.2334275E+00  1.0693209E+03
 3.2567735E+00  1.0770785E+03
 3.2801194E+00  1.0844980E+03
 3.3034656E+00  1.0927911E+03
 3.3268116E+00  1.1001136E+03
 3.3501577E+00  1.1074099E+03
 3.3735037E+00  1.1153597E+03
 3.3968496E+00  1.1200587E+03
 3.4201958E+00  1.1238308E+03
 3.4435418E+00  1.1297302E+03
 3.4668880E+00  1.1357955E+03
 3.4902339E+00  1.1431981E+03
 3.5135798E+00  1.1507852E+03
 3.5369260E+00  1.1590692E+03
 3.5602720E+00  1.1650011E+03
 3.5836182E+00  1.1718363E+03
 3.6069641E+00  1.1784391E+03
 3.6303103E+00  1.1829429E+03
 3.6536562E+00  1.1880121E+03
 3.6770022E+00  1.1929127E+03
 3.7003484E+00  1.1966396E+03
 3.7236943E+00  1.2002938E+03
 3.7470405E+00  1.2071294E+03
 3.7703865E+00  1.2127688E+03
 3.7937324E+00  1.2155887E+03
 3.8170786E+00  1.2198864E+03
 3.8404245E+00  1.2251785E+03
 3.8637707E+00  1.2301343E+03
 3.8871167E+00  1.2340238E+03
 3.9104629E+00  1.2352562E+03
 3.9338088E+00  1.2373727E+03
 3.9571548E+00  1.2415477E+03
 3.9805009E+00  1.2464587E+03
 4.0038471E+00  1.2498015E+03
 4.0271931E+00  1.2516099E+03
 4.0505390E+00  1.2535980E+03
 4.0738850E+00  1.2565654E+03
 4.0972309E+00  1.2595249E+03
 4.1205773E+00  1.2634430E+03
 4.1439233E+00  1.2658912E+03
 4.1672692E+00  1.2701650E+03
 4.1906152E+00  1.2732610E+03
 4.2139611E+00  1.2739028E+03
 4.2373075E+00  1.2756146E+03
 4.2606535E+00  1.2780238E+03
 4.2839994E+00  1.2798118E+03
 4.3073454E+00  1.2836996E+03
 4.3306918E+00  1.2866132E+03
 4.3540378E+00  1.2875670E+03
 4.3773837E+00  1.2885657E+03
 4.4007297E+00  1.2903019E+03
 4.4240756E+00  1.2933282E+03
 4.4474220E+00  1.2955742E+03
 4.4707680E+00  1.2959626E+03
 4.4941139E+00  1.2978628E+03
 4.5174599E+00  1.2999281E+03
 4.5408058E+00  1.2999827E+03
 4.5641522E+00  1.3009518E+03
 4.5874982E+00  1.3013462E+03
 4.6108441E+00  1.3018503E+03
 4.6341901E+00  1.3032576E+03
 4.6575360E+00  1.3037581E+03
 4.6808825E+00  1.3058809E+03
 4.7042284E+00  1.3097749E+03
 4.7275743E+00  1.3110099E+03
 4.7509203E+00  1.3111560E+03
 4.7742662E+00  1.3114700E+03
 4.7976127E+00  1.3134283E+03
 4.8209586E+00  1.3154880E+03
 4.8443046E+00  1.3155532E+03
 4.8676505E+00  1.3153898E+03
 4.8909969E+00  1.3130865E+03
 4.9143429E+00  1.3131903E+03
 4.9376888E+00  1.3149635E+03
 4.9610348E+00  1.3168051E+03
 4.9843807E+00  1.3181288E+03
 5.0077271E+00  1.3172059E+03
 5.0310731E+00  1.3161277E+03
 5.0544190E+00  1.3161786E+03
 5.0777650E+00  1.3177327E+03
 5.1011109E+00  1.3175640E+03
 5.1244574E+00  1.3158638E+03
 5.1478033E+00  1.3149261E+03
 5.1711493E+00  1.3152975E+03
 5.1944952E+00  1.3165994E+03
 5.2178411E+00  1.3175132E+03
 5.2411876E+00  1.3178188E+03
 5.2645335E+00  1.3172754E+03
 5.2878795E+00  1.3164143E+03
 5.3112254E+00  1.3157505E+03
 5.3345714E+00  1.3170608E+03
 5.3579178E+00  1.3166040E+03
 5.3812637E+00  1.3156985E+03
 5.4046097E+00  1.3154823E+03
 5.4279556E+00  1.3170858E+03
 5.4513016E+00  1.3177069E+03
 5.4746480E+00  1.3173856E+03
 5.4979939E+00  1.3170236E+03
 5.5213399E+00  1.3158904E+03
 5.5446858E+00  1.3162479E+03
 5.5680323E+00  1.3161989E+03
 5.5913782E+00  1.3144292E+03
 5.6147242E+00  1.3138052E+03
 5.6380701E+00  1.3131963E+03
 5.6614161E+00  1.3127476E+03
 5.6847625E+00  1.3126372E+03
 5.7081084E+00  1.3133593E+03
 5.7314544E+00  1.3128296E+03
 5.7548003E+00  1.3132753E+03
 5.7781463E+00  1.3141282E+03
 5.8014927E+00  1.3142429E+03
 5.8248386E+00  1.3123789E+03
 5.8481846E+00  1.3108599E+03
 5.8715305E+00  1.3102377E+03
 5.8948765E+00  1.3124583E+03
 5.9182229E+00  1.3120441E+03
 5.9415689E+00  1.3103396E+03
 5.9649148E+00  1.3105653E+03
 5.9882607E+00  1.3102640E+03
 6.0116067E+00  1.3085413E+03
 6.0349531E+00  1.3083708E+03
 6.0582991E+00  1.3077626E+03
 6.0816450E+00  1.3073582E+03
 6.1049910E+00  1.3070182E+03
 6.1283374E+00  1.3059379E+03
 6.1516833E+00  1.3056573E+03
 6.1750293E+00  1.3054468E+03
 6.1983752E+00  1.3049241E+03
 6.2217212E+00  1.3049303E+03
 6.2450676E+00  1.3036176E+03
 6.2684135E+00  1.3025967E+03
 6.2917595E+00  1.3017444E+03
 6.3151054E+00  1.3026443E+03
 6.3384514E+00  1.3041686E+03
 6.3617978E+00  1.3038646E+03
 6.3851438E+00  1.3033040E+03
 6.4084897E+00  1.3037571E+03
 6.4318357E+00  1.3034702E+03
 6.4551816E+00  1.3032606E+03
 6.4785280E+00  1.3027032E+03
 6.5018740E+00  1.3022091E+03
 6.5252199E+00  1.3030354E+03
 6.5485659E+00  1.3024785E+03
 6.5719118E+00  1.3006752E+03
 6.5952582E+00  1.3004570E+03
 6.6186042E+00  1.2992399E+03
 6.6419501E+00  1.2972451E+03
 6.6652961E+00  1.2955383E+03
 6.6886420E+00  1.2959747E+03
 6.7119884E+00  1.2967565E+03
 6.7353344E+00  1.2970529E+03
 6.7586803E+00  1.2935138E+03
 6.7820263E+00  1.2925632E+03
 6.8053727E+00  1.2939714E+03
 6.8287187E+00  1.2925090E+03
 6.8520646E+00  1.2916488E+03
 6.8754106E+00  1.2908457E+03
 6.8987565E+00  1.2894409E+03
 6.9221029E+00  1.2895123E+03
 6.9454489E+00  1.2900902E+03
 6.9687948E+00  1.2898678E+03
 6.9921408E+00  1.2891050E+03
 7.0154867E+00  1.2887863E+03
 7.0388331E+00  1.2884340E+03
 7.0621791E+00  1.2866937E+03
 7.0855250E+00  1.2859521E+03
 7.1088710E+00  1.2864670E+03
 7.1322169E+00  1.2859962E+03
 7.1555634E+00  1.2859333E+03
 7.1789093E+00  1.2857903E+03
 7.2022552E+00  1.2846287E+03
 7.2256012E+00  1.2831327E+03
 7.2489471E+00  1.2837512E+03
 7.2722936E+00  1.2841621E+03
 7.2956395E+00  1.2841440E+03
 7.3189855E+00  1.2845437E+03
 7.3423314E+00  1.2843846E+03
 7.3656778E+00  1.2816221E+03
 7.3890238E+00  1.2792135E+03
 7.4123697E+00  1.2778864E+03
 7.4357157E+00  1.2764620E+03
 7.4590616E+00  1.2771438E+03
 7.4824080E+00  1.2776838E+03
 7.5057540E+00  1.2778944E+03
 7.5290999E+00  1.2772871E+03
 7.5524459E+00  1.2766334E+03
 7.5757918E+00  1.2774282E+03
 7.5991383E+00  1.2781140E+03
 7.6224842E+00  1.2785464E+03
 7.6458302E+00  1.2776307E+03
 7.6691761E+00  1.2762523E+03
 7.6925220E+00  1.2748696E+03
 7.7158685E+00  1.2743638E+03
 7.7392144E+00  1.2731853E+03
 7.7625604E+00  1.2726306E+03
 7.7859063E+00  1.2722189E+03
 7.8092523E+00  1.2727253E+03
 7.8325987E+00  1.2724379E+03
 7.8559446E+00  1.2727220E+03
 7.8792906E+00  1.2729537E+03
 7.9026365E+00  1.2732820E+03
 7.9259825E+00  1.2720178E+03
 7.9493289E+00  1.2714720E+03
 7.9726748E+00  1.2714486E+03
 7.9960208E+00  1.2715645E+03
 8.0193672E+00  1.2709739E+03
 8.0427132E+00  1.2693096E+03
 8.0660591E+00  1.2684237E+03
 8.0894051E+00  1.2685425E+03
 8.1127510E+00  1.2698724E+03
 8.1360970E+00  1.2689703E+03
 8.1594429E+00  1.2670579E+03
 8.1827888E+00  1.2661268E+03
 8.2061348E+00  1.2664712E+03
 8.2294817E+00  1.2651262E+03
 8.2528276E+00  1.2642576E+03
 8.2761736E+00  1.2654995E+03
 8.2995195E+00  1.2653708E+03
 8.3228655E+00  1.2654381E+03
 8.3462114E+00  1.2659094E+03
 8.3695574E+00  1.2664833E+03
 8.3929033E+00  1.2674028E+03
 8.4162493E+00  1.2675043E+03
 8.4395962E+00  1.2670319E+03
 8.4629421E+00  1.2678230E+03
 8.4862881E+00  1.2690743E+03
 8.5096340E+00  1.2690167E+03
 8.5329800E+00  1.2686390E+03
 8.5563259E+00  1.2688195E+03
 8.5796719E+00  1.2690664E+03
 8.6030178E+00  1.2715186E+03
 8.6263638E+00  1.2737537E+03
 8.6497097E+00  1.2753760E+03
 8.6730566E+00  1.2750576E+03
 8.6964025E+00  1.2767614E+03
 8.7197485E+00  1.2809517E+03
 8.7430944E+00  1.2875444E+03
 8.7664404E+00  1.2955542E+03
 8.7897863E+00  1.3073737E+03
 8.8131323E+00  1.3211276E+03
 8.8364782E+00  1.3367529E+03
 8.8598242E+00  1.3486890E+03
 8.8831711E+00  1.3495170E+03
 8.9065170E+00  1.3414447E+03
 8.9298630E+00  1.3291207E+03
 8.9532089E+00  1.3162412E+03
 8.9765549E+00  1.3059446E+03
 8.9999008E+00  1.2969779E+03
 9.0232468E+00  1.2898956E+03
 9.0465927E+00  1.2863394E+03
 9.0699387E+00  1.2834248E+03
 9.0932846E+00  1.2823444E+03
 9.1166315E+00  1.2813740E+03
 9.1399775E+00  1.2796340E+03
 9.1633234E+00  1.2797998E+03
 9.1866693E+00  1.2846776E+03
 9.2100153E+00  1.2914237E+03
 9.2333612E+00  1.3024753E+03
 9.2567072E+00  1.3179631E+03
 9.2800531E+00  1.3152183E+03
 9.3033991E+00  1.2983840E+03
 9.3267450E+00  1.2864607E+03
 9.3500919E+00  1.2842919E+03
 9.3734379E+00  1.2838027E+03
 9.3967838E+00  1.2826049E+03
 9.4201298E+00  1.2805692E+03
 9.4434757E+00  1.2788190E+03
 9.4668217E+00  1.2766389E+03
 9.4901676E+00  1.2763192E+03
 9.5135136E+00  1.2756587E+03
 9.5368595E+00  1.2870103E+03
 9.5602064E+00  1.3324496E+03
 9.5835524E+00  1.3905276E+03
 9.6068983E+00  1.3900343E+03
 9.6302443E+00  1.3763075E+03
 9.6535902E+00  1.3255781E+03
 9.6769361E+00  1.2738085E+03
 9.7002821E+00  1.2705284E+03
 9.7236280E+00  1.2693654E+03
 9.7469740E+00  1.2681433E+03
 9.7703199E+00  1.2677134E+03
 9.7936668E+00  1.2674008E+03
 9.8170128E+00  1.2667506E+03
 9.8403587E+00  1.2668577E+03
 9.8637047E+00  1.2676213E+03
 9.8870506E+00  1.2679191E+03
 9.9103966E+00  1.2690790E+03
 9.9337425E+00  1.2708361E+03
 9.9570885E+00  1.2718461E+03
 9.9804344E+00  1.2781436E+03
 1.0003780E+01  1.2937329E+03
 1.0027127E+01  1.2998607E+03
 1.0050473E+01  1.3053062E+03
 1.0073819E+01  1.3102056E+03
 1.0097165E+01  1.3146250E+03
 1.0120511E+01  1.3175092E+03
 1.0143857E+01  1.3186541E+03
 1.0167203E+01  1.3204585E+03
 1.0190549E+01  1.3219249E+03
 1.0213895E+01  1.3249880E+03
 1.0237242E+01  1.3280754E+03
 1.0260588E+01  1.3291698E+03
 1.0283934E+01  1.3271089E+03
 1.0307280E+01  1.3227043E+03
 1.0330626E+01  1.3194304E+03
 1.0353971E+01  1.3170566E+03
 1.0377317E+01  1.3133971E+03
 1.0400663E+01  1.3109590E+03
 1.0424009E+01  1.3116688E+03
 1.0447355E+01  1.3125807E+03
 1.0470702E+01  1.3169191E+03
 1.0494048E+01  1.3219854E+03
 1.0517394E+01  1.3254663E+03
 1.0540740E+01  1.3275918E+03
 1.0564086E+01  1.3300250E+03
 1.0587432E+01  1.3330173E+03
 1.0610778E+01  1.3364297E+03
 1.0634124E+01  1.3418599E+03
 1.0657470E+01  1.3645819E+03
 1.0680816E+01  1.4180314E+03
 1.0704163E+01  1.4178092E+03
 1.0727509E+01  1.3650620E+03
 1.0750854E+01  1.3622382E+03
 1.0774200E+01  1.3772693E+03
 1.0797546E+01  1.4128335E+03
 1.0820892E+01  1.4524642E+03
 1.0844238E+01  1.4514838E+03
 1.0867584E+01  1.4139567E+03
 1.0890930E+01  1.3869596E+03
 1.0914277E+01  1.3788427E+03
 1.0937623E+01  1.3772804E+03
 1.0960969E+01  1.3779076E+03
 1.0984315E+01  1.3819655E+03
 1.1007661E+01  1.3865458E+03
 1.1031007E+01  1.3891780E+03
 1.1054353E+01  1.3917065E+03
 1.1077699E+01  1.3989989E+03
 1.1101045E+01  1.4143075E+03
 1.1124391E+01  1.4447313E+03
 1.1147738E+01  1.4856270E+03
 1.1171083E+01  1.5274692E+03
 1.1194429E+01  1.5723083E+03
 1.1217775E+01  1.6139204E+03
 1.1241121E+01  1.7736810E+03
 1.1264467E+01  2.0540859E+03
 1.1287813E+01  2.3162654E+03
 1.1311159E+01  2.3768987E+03
 1.1334505E+01  2.1555315E+03
 1.1357852E+01  1.8712319E+03
 1.1381198E+01  1.6570831E+03
 1.1404544E+01  1.5494211E+03
 1.1427890E+01  1.5044745E+03
 1.1451236E+01  1.4819700E+03
 1.1474582E+01  1.4657247E+03
 1.1497928E+01  1.4554868E+03
 1.1521274E+01  1.4477637E+03
 1.1544620E+01  1.4400627E+03
 1.1567966E+01  1.4355051E+03
 1.1591312E+01  1.4327502E+03
 1.1614658E+01  1.4312681E+03
 1.1638004E+01  1.4303752E+03
 1.1661350E+01  1.4307877E+03
 1.1684696E+01  1.4306936E+03
 1.1708042E+01  1.4322690E+03
 1.1731388E+01  1.4364069E+03
 1.1754734E+01  1.4437987E+03
 1.1778080E+01  1.4529934E+03
 1.1801426E+01  1.4626230E+03
 1.1824773E+01  1.4780935E+03
 1.1848119E+01  1.4914990E+03
 1.1871465E+01  1.4978936E+03
 1.1894811E+01  1.5034348E+03
 1.1918157E+01  1.5024017E+03
 1.1941503E+01  1.4971260E+03
 1.1964849E+01  1.4887104E+03
 1.1988194E+01  1.4793188E+03
 1.2011540E+01  1.4728875E+03
 1.2034887E+01  1.4687498E+03
 1.2058233E+01  1.4633430E+03
 1.2081579E+01  1.4599995E+03
 1.2104925E+01  1.4578971E+03
 1.2128271E+01  1.4567546E+03
 1.2151617E+01  1.4567177E+03
 1.2174963E+01  1.4580864E+03
 1.2198309E+01  1.4596282E+03
 1.2221655E+01  1.4597487E+03
 1.2245001E+01  1.4612659E+03
 1.2268348E+01  1.4643038E+03
 1.2291694E+01  1.4660358E+03
 1.2315040E+01  1.4690885E+03
 1.2338386E+01  1.4701497E+03
 1.2361732E+01  1.4707147E+03
 1.2385077E+01  1.4756385E+03
 1.2408423E+01  1.4810742E+03
 1.2431769E+01  1.4851451E+03
 1.2455115E+01  1.4911602E+03
 1.2478461E+01  1.5012789E+03
 1.2501808E+01  1.5173456E+03
 1.2525154E+01  1.5342844E+03
 1.2548500E+01  1.5481647E+03
 1.2571846E+01  1.5617583E+03
 1.2595192E+01  1.5661647E+03
 1.2618538E+01  1.5594810E+03
 1.2641884E+01  1.5525308E+03
 1.2665230E+01  1.5469155E+03
 1.2688576E+01  1.5415775E+03
 1.2711923E+01  1.5390237E+03
 1.2735269E+01  1.5388333E+03
 1.2758615E+01  1.5398278E+03
 1.2781960E+01  1.5443658E+03
 1.2805306E+01  1.5511221E+03
 1.2828652E+01  1.5581084E+03
 1.2851998E+01  1.5663378E+03
 1.2875344E+01  1.5782244E+03
 1.2898690E+01  1.5963741E+03
 1.2922036E+01  1.6255978E+03
 1.2945383E+01  1.6759362E+03
 1.2968729E+01  1.7392280E+03
 1.2992075E+01  1.7722885E+03
 1.3015421E+01  1.8268035E+03
 1.3038767E+01  1.8994838E+03
 1.3062113E+01  1.9783053E+03
 1.3085459E+01  2.0075072E+03
 1.3108805E+01  1.9713029E+03
 1.3132151E+01  1.8962125E+03
 1.3155498E+01  1.7533593E+03
 1.3178843E+01  1.6116053E+03
 1.3202189E+01  1.5818688E+03
 1.3225535E+01  1.5700642E+03
 1.3248881E+01  1.5650835E+03
 1.3272227E+01  1.5620085E+03
 1.3295573E+01  1.5581069E+03
 1.3318919E+01  1.5585165E+03
 1.3342265E+01  1.5575414E+03
 1.3365611E+01  1.5563162E+03
 1.3388958E+01  1.5597891E+03
 1.3412304E+01  1.5606768E+03
 1.3435650E+01  1.5635508E+03
 1.3458996E+01  1.5661348E+03
 1.3482342E+01  1.5695524E+03
 1.3505688E+01  1.5741681E+03
 1.3529034E+01  1.5774943E+03
 1.3552380E+01  1.5793744E+03
 1.3575726E+01  1.5800514E+03
 1.3599072E+01  1.5766951E+03
 1.3622418E+01  1.5775210E+03
 1.3645764E+01  1.5767201E+03
 1.3669110E+01  1.5761909E+03
 1.3692456E+01  1.5790138E+03
 1.3715802E+01  1.5787883E+03
 1.3739148E+01  1.5799236E+03
 1.3762494E+01  1.5801713E+03
 1.3785840E+01  1.5794463E+03
 1.3809186E+01  1.5807101E+03
 1.3832533E+01  1.5828165E+03
 1.3855879E+01  1.5863923E+03
 1.3879225E+01  1.5878971E+03
 1.3902571E+01  1.5888790E+03
 1.3925917E+01  1.5915372E+03
 1.3949263E+01  1.5917214E+03
 1.3972609E+01  1.5928751E+03
 1.3995955E+01  1.5951858E+03
 1.4019300E+01  1.5990371E+03
 1.4042646E+01  1.6009495E+03
 1.4065993E+01  1.6034318E+03
 1.4089339E+01  1.6069843E+03
 1.4112685E+01  1.6080962E+03
 1.4136031E+01  1.6084523E+03
 1.4159377E+01  1.6097797E+03
 1.4182723E+01  1.6117930E+03
 1.4206069E+01  1.6152582E+03
 1.4229415E+01  1.6182764E+03
 1.4252761E+01  1.6195282E+03
 1.4276107E+01  1.6233259E+03
 1.4299454E+01  1.6252651E+03
 1.4322800E+01  1.6267235E+03
 1.4346146E+01  1.6288456E+03
 1.4369492E+01  1.6319049E+03
 1.4392838E+01  1.6350474E+03
 1.4416183E+01  1.6364799E+03
 1.4439529E+01  1.6378207E+03
 1.4462875E+01  1.6414222E+03
 1.4486221E+01  1.6490027E+03
 1.4509568E+01  1.6597677E+03
 1.4532914E+01  1.6680734E+03
 1.4556260E+01  1.6729565E+03
 1.4579606E+01  1.6796290E+03
 1.4602952E+01  1.6827173E+03
 1.4626298E+01  1.6805032E+03
 1.4649644E+01  1.6742374E+03
 1.4672990E+01  1.6701160E+03
 1.4696336E+01  1.6667439E+03
 1.4719682E+01  1.6675397E+03
 1.4743029E+01  1.6683566E+03
 1.4766375E+01  1.6683372E+03
 1.4789721E+01  1.6686046E+03
 1.4813066E+01  1.6694039E+03
 1.4836412E+01  1.6713182E+03
 1.4859758E+01  1.6732679E+03
 1.4883104E+01  1.6757302E+03
 1.4906450E+01  1.6781946E+03
 1.4929796E+01  1.6815836E+03
 1.4953142E+01  1.6846713E+03
 1.4976489E+01  1.6857778E+03
 1.4999835E+01  1.6872426E+03
 1.5023181E+01  1.6879886E+03
 1.5046527E+01  1.6910720E+03
 1.5069873E+01  1.6933585E+03
 1.5093219E+01  1.6967136E+03
 1.5116565E+01  1.6987030E+03
 1.5139911E+01  1.6998541E+03
 1.5163257E+01  1.7030574E+03
 1.5186604E+01  1.7060941E+03
 1.5209949E+01  1.7064718E+03
 1.5233295E+01  1.7095564E+03
 1.5256641E+01  1.7132032E+03
 1.5279987E+01  1.7142522E+03
 1.5303333E+01  1.7149744E+03
 1.5326679E+01  1.7173578E+03
 1.5350025E+01  1.7211138E+03
 1.5373371E+01  1.7234180E+03
 1.5396717E+01  1.7228679E+03
 1.5420064E+01  1.7222909E+03
 1.5443410E+01  1.7255096E+03
 1.5466756E+01  1.7297672E+03
 1.5490102E+01  1.7335529E+03
 1.5513448E+01  1.7383021E+03
 1.5536794E+01  1.7434144E+03
 1.5560140E+01  1.7464412E+03
 1.5583486E+01  1.7489629E+03
 1.5606832E+01  1.7527280E+03
 1.5630178E+01  1.7585254E+03
 1.5653524E+01  1.7659845E+03
 1.5676870E+01  1.7708680E+03
 1.5700216E+01  1.7733453E+03
 1.5723562E+01  1.7770413E+03
 1.5746908E+01  1.7807386E+03
 1.5770254E+01  1.7828068E+03
 1.5793600E+01  1.7826725E+03
 1.5816946E+01  1.7850702E+03
 1.5840292E+01  1.7894375E+03
 1.5863639E+01  1.7916973E+03
 1.5886985E+01  1.7923608E+03
 1.5910331E+01  1.7943247E+03
 1.5933677E+01  1.7979163E+03
 1.5957023E+01  1.8005189E+03
 1.5980369E+01  1.8018816E+03
 1.6003716E+01  1.8028751E+03
 1.6027061E+01  1.8034152E+03
 1.6050407E+01  1.8058406E+03
 1.6073753E+01  1.8130988E+03
 1.6097099E+01  1.8184493E+03
 1.6120445E+01  1.8227762E+03
 1.6143791E+01  1.8283496E+03
 1.6167137E+01  1.8314337E+03
 1.6190483E+01  1.8292102E+03
 1.6213829E+01  1.8271167E+03
 1.6237175E+01  1.8237581E+03
 1.6260521E+01  1.8216619E+03
 1.6283867E+01  1.8207433E+03
 1.6307213E+01  1.8192040E+03
 1.6330559E+01  1.8194207E+03
 1.6353905E+01  1.8202211E+03
 1.6377251E+01  1.8222928E+03
 1.6400597E+01  1.8239983E+03
 1.6423944E+01  1.8264922E+03
 1.6447290E+01  1.8271593E+03
 1.6470636E+01  1.8285756E+03
 1.6493982E+01  1.8312009E+03
 1.6517328E+01  1.8322361E+03
 1.6540674E+01  1.8329789E+03
 1.6564020E+01  1.8341649E+03
 1.6587366E+01  1.8360398E+03
 1.6610712E+01  1.8396547E+03
 1.6634058E+01  1.8425745E+03
 1.6657404E+01  1.8448695E+03
 1.6680750E+01  1.8465859E+03
 1.6704096E+01  1.8482069E+03
 1.6727442E+01  1.8516139E+03
 1.6750788E+01  1.8557841E+03
 1.6774134E+01  1.8586863E+03
 1.6797480E+01  1.8613092E+03
 1.6820826E+01  1.8643931E+03
 1.6844172E+01  1.8662720E+03
 1.6867519E+01  1.8698826E+03
 1.6890865E+01  1.8733138E+03
 1.6914211E+01  1.8757203E+03
 1.6937557E+01  1.8790198E+03
 1.6960903E+01  1.8805236E+03
 1.6984249E+01  1.8842692E+03
 1.7007595E+01  1.8869189E+03
 1.7030941E+01  1.8877291E+03
 1.7054287E+01  1.8890659E+03
 1.7077633E+01  1.8914368E+03
 1.7100979E+01  1.8929348E+03
 1.7124325E+01  1.8936364E+03
 1.7147671E+01  1.8945977E+03
 1.7171017E+01  1.8974227E+03
 1.7194363E+01  1.8989753E+03
 1.7217709E+01  1.9040507E+03
 1.7241055E+01  1.9083246E+03
 1.7264400E+01  1.9103473E+03
 1.7287746E+01  1.9148049E+03
 1.7311092E+01  1.9199575E+03
 1.7334440E+01  1.9235118E+03
 1.7357786E+01  1.9274672E+03
 1.7381132E+01  1.9297991E+03
 1.7404478E+01  1.9349785E+03
 1.7427824E+01  1.9409016E+03
 1.7451170E+01  1.9503262E+03
 1.7474516E+01  1.9587224E+03
 1.7497862E+01  1.9667205E+03
 1.7521208E+01  1.9750956E+03
 1.7544554E+01  1.9908574E+03
 1.7567900E+01  2.0089923E+03
 1.7591246E+01  2.0286854E+03
 1.7614592E+01  2.0538347E+03
 1.7637938E+01  2.0820710E+03
 1.7661283E+01  2.1015554E+03
 1.7684629E+01  2.1104956E+03
 1.7707975E+01  2.1109749E+03
 1.7731321E+01  2.1087375E+03
 1.7754667E+01  2.1043970E+03
 1.7778015E+01  2.0989219E+03
 1.7801361E+01  2.0959182E+03
 1.7824707E+01  2.0932036E+03
 1.7848053E+01  2.0871714E+03
 1.7871399E+01  2.0812717E+03
 1.7894745E+01  2.0741912E+03
 1.7918091E+01  2.0666594E+03
 1.7941437E+01  2.0591138E+03
 1.7964783E+01  2.0528936E+03
 1.7988129E+01  2.0481057E+03
 1.8011475E+01  2.0428225E+03
 1.8034821E+01  2.0361626E+03
 1.8058167E+01  2.0316892E+03
 1.8081512E+01  2.0319264E+03
 1.8104858E+01  2.0302854E+03
 1.8128204E+01  2.0306201E+03
 1.8151550E+01  2.0327388E+03
 1.8174896E+01  2.0348251E+03
 1.8198242E+01  2.0356796E+03
 1.8221590E+01  2.0397910E+03
 1.8244936E+01  2.0461089E+03
 1.8268282E+01  2.0538540E+03
 1.8291628E+01  2.0619468E+03
 1.8314974E+01  2.0723137E+03
 1.8338320E+01  2.0871013E+03
 1.8361666E+01  2.1171406E+03
 1.8385012E+01  2.1696677E+03
 1.8408358E+01  2.2212068E+03
 1.8431704E+01  2.2748369E+03
 1.8455050E+01  2.3601655E+03
 1.8478395E+01  2.4341433E+03
 1.8501741E+01  2.4224453E+03
 1.8525087E+01  2.3376987E+03
 1.8548433E+01  2.2724839E+03
 1.8571779E+01  2.2277698E+03
 1.8595125E+01  2.1780049E+03
 1.8618471E+01  2.1325654E+03
 1.8641817E+01  2.1067000E+03
 1.8665165E+01  2.0912737E+03
 1.8688511E+01  2.0828369E+03
 1.8711857E+01  2.0775120E+03
 1.8735203E+01  2.0730056E+03
 1.8758549E+01  2.0704731E+03
 1.8781895E+01  2.0707935E+03
 1.8805241E+01  2.0719492E+03
 1.8828587E+01  2.0730208E+03
 1.8851933E+01  2.0736821E+03
 1.8875278E+01  2.0746719E+03
 1.8898624E+01  2.0755955E+03
 1.8921970E+01  2.0789873E+03
 1.8945316E+01  2.0801384E+03
 1.8968662E+01  2.0811128E+03
 1.8992008E+01  2.0827495E+03
 1.9015354E+01  2.0846006E+03
 1.9038700E+01  2.0850583E+03
 1.9062046E+01  2.0840479E+03
 1.9085392E+01  2.0823911E+03
 1.9108738E+01  2.0819028E+03
 1.9132086E+01  2.0789670E+03
 1.9155432E+01  2.0772693E+03
 1.9178778E+01  2.0764233E+03
 1.9202124E+01  2.0783982E+03
 1.9225470E+01  2.0793694E+03
 1.9248816E+01  2.0813027E+03
 1.9272161E+01  2.0832209E+03
 1.9295507E+01  2.0848582E+03
 1.9318853E+01  2.0861423E+03
 1.9342199E+01  2.0877854E+03
 1.9365545E+01  2.0897644E+03
 1.9388891E+01  2.0931333E+03
 1.9412237E+01  2.0948076E+03
 1.9435583E+01  2.0966653E+03
 1.9458929E+01  2.0983818E+03
 1.9482275E+01  2.1009519E+03
 1.9505621E+01  2.1016746E+03
 1.9528967E+01  2.1053567E+03
 1.9552313E+01  2.1116040E+03
 1.9575661E+01  2.1198787E+03
 1.9599007E+01  2.1252051E+03
 1.9622353E+01  2.1277698E+03
 1.9645699E+01  2.1268159E+03
 1.9669044E+01  2.1262161E+03
 1.9692390E+01  2.1248882E+03
 1.9715736E+01  2.1238330E+03
 1.9739082E+01  2.1260352E+03
 1.9762428E+01  2.1298882E+03
 1.9785774E+01  2.1323125E+03
 1.9809120E+01  2.1347717E+03
 1.9832466E+01  2.1399299E+03
 1.9855812E+01  2.1415608E+03
 1.9879158E+01  2.1433877E+03
 1.9902504E+01  2.1457537E+03
 1.9925850E+01  2.1473855E+03
 1.9949196E+01  2.1476262E+03
 1.9972542E+01  2.1470703E+03
 1.9995888E+01  2.1474702E+03
 2.0019236E+01  2.1503552E+03
 2.0042582E+01  2.1532266E+03
 2.0065928E+01  2.1531084E+03
 2.0089273E+01  2.1535598E+03
 2.0112619E+01  2.1557451E+03
 2.0135965E+01  2.1565359E+03
 2.0159311E+01  2.1581045E+03
 2.0182657E+01  2.1596440E+03
 2.0206003E+01  2.1601780E+03
 2.0229349E+01  2.1593853E+03
 2.0252695E+01  2.1588711E+03
 2.0276041E+01  2.1617124E+03
 2.0299387E+01  2.1660347E+03
 2.0322733E+01  2.1692170E+03
 2.0346079E+01  2.1687141E+03
 2.0369425E+01  2.1684404E+03
 2.0392771E+01  2.1702791E+03
 2.0416117E+01  2.1711924E+03
 2.0439463E+01  2.1701738E+03
 2.0462809E+01  2.1713523E+03
 2.0486156E+01  2.1750393E+03
 2.0509502E+01  2.1772024E+03
 2.0532848E+01  2.1840798E+03
 2.0556194E+01  2.2003220E+03
 2.0579540E+01  2.2221672E+03
 2.0602886E+01  2.2360020E+03
 2.0626232E+01  2.2287429E+03
 2.0649578E+01  2.2113521E+03
 2.0672924E+01  2.2036912E+03
 2.0696270E+01  2.2035667E+03
 2.0719616E+01  2.2098438E+03
 2.0742962E+01  2.2120901E+03
 2.0766308E+01  2.2094353E+03
 2.0789654E+01  2.2049856E+03
 2.0813000E+01  2.2023018E+03
 2.0836346E+01  2.2024717E+03
 2.0859692E+01  2.2022764E+03
 2.0883038E+01  2.2037244E+03
 2.0906384E+01  2.2061128E+03
 2.0929731E+01  2.2054453E+03
 2.0953077E+01  2.2048699E+03
 2.0976423E+01  2.2048118E+03
 2.0999769E+01  2.2068044E+03
 2.1023115E+01  2.2111355E+03
 2.1046461E+01  2.2137468E+03
 2.1069807E+01  2.2155632E+03
 2.1093153E+01  2.2184087E+03
 2.1116499E+01  2.2211570E+03
 2.1139845E+01  2.2245010E+03
 2.1163191E+01  2.2266187E+03
 2.1186537E+01  2.2310684E+03
 2.1209883E+01  2.2341421E+03
 2.1233229E+01  2.2335400E+03
 2.1256575E+01  2.2345903E+03
 2.1279921E+01  2.2359236E+03
 2.1303267E+01  2.2392683E+03
 2.1326612E+01  2.2415591E+03
 2.1349958E+01  2.2449832E+03
 2.1373306E+01  2.2516313E+03
 2.1396652E+01  2.2599048E+03
 2.1419998E+01  2.2680361E+03
 2.1443344E+01  2.2757446E+03
 2.1466690E+01  2.2856035E+03
 2.1490036E+01  2.2988196E+03
 2.1513382E+01  2.3138257E+03
 2.1536728E+01  2.3406631E+03
 2.1560074E+01  2.4066335E+03
 2.1583420E+01  2.4771184E+03
 2.1606766E+01  2.4973928E+03
 2.1630112E+01  2.6242012E+03
 2.1653458E+01  2.6936252E+03
 2.1676804E+01  2.7607229E+03
 2.1700150E+01  2.7711343E+03
 2.1723495E+01  2.7124299E+03
 2.1746841E+01  2.6441995E+03
 2.1770187E+01  2.5487527E+03
 2.1793533E+01  2.4408206E+03
 2.1816881E+01  2.4064343E+03
 2.1840227E+01  2.3706375E+03
 2.1863573E+01  2.3395356E+03
 2.1886919E+01  2.3161165E+03
 2.1910265E+01  2.3016074E+03
 2.1933611E+01  2.2934258E+03
 2.1956957E+01  2.2886675E+03
 2.1980303E+01  2.2817778E+03
 2.2003649E+01  2.2794661E+03
 2.2026995E+01  2.2782007E+03
 2.2050341E+01  2.2793948E+03
 2.2073687E+01  2.2796680E+03
 2.2097033E+01  2.2788728E+03
 2.2120378E+01  2.2784590E+03
 2.2143724E+01  2.2782341E+03
 2.2167070E+01  2.2777507E+03
 2.2190416E+01  2.2766177E+03
 2.2213762E+01  2.2758474E+03
 2.2237108E+01  2.2755667E+03
 2.2260454E+01  2.2754893E+03
 2.2283802E+01  2.2760139E+03
 2.2307148E+01  2.2781819E+03
 2.2330494E+01  2.2811147E+03
 2.2353840E+01  2.2829749E+03
 2.2377186E+01  2.2839556E+03
 2.2400532E+01  2.2868108E+03
 2.2423878E+01  2.2888455E+03
 2.2447224E+01  2.2902578E+03
 2.2470570E+01  2.2906064E+03
 2.2493916E+01  2.2923115E+03
 2.2517262E+01  2.2942905E+03
 2.2540607E+01  2.2981362E+03
 2.2563953E+01  2.3035457E+03
 2.2587299E+01  2.3097708E+03
 2.2610645E+01  2.3296965E+03
 2.2633991E+01  2.3559414E+03
 2.2657337E+01  2.3751980E+03
 2.2680683E+01  2.3814519E+03
 2.2704029E+01  2.3620017E+03
 2.2727377E+01  2.3375598E+03
 2.2750723E+01  2.3223113E+03
 2.2774069E+01  2.3127759E+03
 2.2797415E+01  2.3076147E+03
 2.2820761E+01  2.3048403E+03
 2.2844107E+01  2.3007158E+03
 2.2867453E+01  2.2955054E+03
 2.2890799E+01  2.2931243E+03
 2.2914145E+01  2.2932229E+03
 2.2937490E+01  2.2942131E+03
 2.2960836E+01  2.2945737E+03
 2.2984182E+01  2.2951240E+03
 2.3007528E+01  2.2943860E+03
 2.3030874E+01  2.2935400E+03
 2.3054220E+01  2.2935251E+03
 2.3077566E+01  2.2953628E+03
 2.3100912E+01  2.2946477E+03
 2.3124258E+01  2.2929363E+03
 2.3147604E+01  2.2930740E+03
 2.3170952E+01  2.2914529E+03
 2.3194298E+01  2.2901978E+03
 2.3217644E+01  2.2924761E+03
 2.3240990E+01  2.2920388E+03
 2.3264336E+01  2.2928782E+03
 2.3287682E+01  2.2938428E+03
 2.3311028E+01  2.2912532E+03
 2.3334373E+01  2.2903855E+03
 2.3357719E+01  2.2907349E+03
 2.3381065E+01  2.2597722E+03
 2.3404411E+01  2.1601235E+03
 2.3427757E+01  2.0315363E+03
 2.3451103E+01  1.9362167E+03
 2.3474449E+01  1.8494814E+03
 2.3497795E+01  1.8169525E+03
 2.3521141E+01  1.8280311E+03
 2.3544487E+01  1.8366300E+03
 2.3567833E+01  1.8217148E+03
 2.3591179E+01  1.7870248E+03
 2.3614527E+01  1.7429788E+03
 2.3637873E+01  1.7022839E+03
 2.3661219E+01  1.6663567E+03
 2.3684565E+01  1.6354469E+03
 2.3707911E+01  1.6032737E+03
 2.3731256E+01  1.5705447E+03
 2.3754602E+01  1.5504088E+03
 2.3777948E+01  1.5539126E+03
 2.3801294E+01  1.5688676E+03
 2.3824640E+01  1.5843340E+03
 2.3847986E+01  1.5992979E+03
 2.3871332E+01  1.6157603E+03
 2.3894678E+01  1.6319856E+03
 2.3918024E+01  1.6473409E+03
 2.3941370E+01  1.6627423E+03
 2.3964716E+01  1.6769562E+03
 2.3988062E+01  1.6928501E+03
 2.4011408E+01  1.7063752E+03
 2.4034754E+01  1.7214287E+03
 2.4058100E+01  1.7349568E+03
 2.4081448E+01  1.7479412E+03
 2.4104794E+01  1.7631895E+03
 2.4128139E+01  1.7798649E+03
 2.4151485E+01  1.7973450E+03
 2.4174831E+01  1.8094447E+03
 2.4198177E+01  1.8260074E+03
 2.4221523E+01  1.8399841E+03
 2.4244869E+01  1.8553138E+03
 2.4268215E+01  1.8719878E+03
 2.4291561E+01  1.8889839E+03
 2.4314907E+01  1.9063801E+03
 2.4338253E+01  1.9278137E+03
 2.4361599E+01  1.9627649E+03
 2.4384945E+01  2.0122291E+03
 2.4408291E+01  2.0653518E+03
 2.4431637E+01  2.0831694E+03
 2.4454983E+01  2.0754307E+03
 2.4478329E+01  2.0652961E+03
 2.4501675E+01  2.0615144E+03
 2.4525023E+01  2.0620107E+03
 2.4548368E+01  2.0680708E+03
 2.4571714E+01  2.0793447E+03
 2.4595060E+01  2.0879128E+03
 2.4618406E+01  2.0907598E+03
 2.4641752E+01  2.0507817E+03
 2.4665098E+01  1.9845852E+03
 2.4688444E+01  1.9070924E+03
 2.4711790E+01  1.8295842E+03
 2.4735136E+01  1.7436035E+03
 2.4758482E+01  1.5695411E+03
 2.4781828E+01  1.3895056E+03
 2.4805174E+01  1.1880109E+03
 2.4828520E+01  1.0909493E+03
 2.4851866E+01  1.0904020E+03
 2.4875212E+01  1.0952980E+03
 2.4898558E+01  1.0632507E+03
 2.4921904E+01  9.3514868E+02
 2.4945250E+01  6.7126178E+02
 2.4968597E+01  3.2361273E+02
 2.4991943E+01  4.9603340E+01
 2.5015289E+01  1.2927324E-01
 2.5038635E+01  0.0000000E+00
 2.5061981E+01  0.0000000E+00
 2.5085327E+01  0.0000000E+00
 2.5108673E+01  0.0000000E+00
 2.5132019E+01  0.0000000E+00
 2.5155365E+01  0.0000000E+00
 2.5178711E+01  0.0000000E+00
 2.5202057E+01  0.0000000E+00
 2.5225403E+01  0.0000000E+00
 2.5248749E+01  0.0000000E+00
 2.5272095E+01  0.0000000E+00
 2.5295441E+01  0.0000000E+00
 2.5318787E+01  0.0000000E+00
 2.5342133E+01  0.0000000E+00
 2.5365479E+01  0.0000000E+00
 2.5388824E+01  0.0000000E+00
 2.5412172E+01  0.0000000E+00
 2.5435518E+01  0.0000000E+00
 2.5458864E+01  0.0000000E+00
 2.5482210E+01  0.0000000E+00
 2.5505556E+01  0.0000000E+00
 2.5528902E+01  0.0000000E+00
 2.5552248E+01  0.0000000E+00
 2.5575594E+01  0.0000000E+00
 2.5598940E+01  0.0000000E+00
 2.5622286E+01  0.0000000E+00
 2.5645632E+01  0.0000000E+00
 2.5668978E+01  0.0000000E+00
 2.5692324E+01  0.0000000E+00
 2.5715670E+01  0.0000000E+00
 2.5739016E+01  0.0000000E+00
 2.5762362E+01  0.0000000E+00
 2.5785707E+01  0.0000000E+00
 2.5809053E+01  0.0000000E+00
 2.5832399E+01  0.0000000E+00
 2.5855745E+01  0.0000000E+00
 2.5879093E+01  0.0000000E+00
 2.5902439E+01  0.0000000E+00
 2.5925785E+01  0.0000000E+00
 2.5949131E+01  0.0000000E+00
 2.5972477E+01  0.0000000E+00
 2.5995823E+01  0.0000000E+00
 2.6019169E+01  0.0000000E+00
 2.6042515E+01  0.0000000E+00
 2.6065861E+01  0.0000000E+00
 2.6089207E+01  0.0000000E+00
 2.6112553E+01  0.0000000E+00
 2.6135899E+01  0.0000000E+00
 2.6159245E+01  0.0000000E+00
 2.6182590E+01  0.0000000E+00
 2.6205936E+01  0.0000000E+00
 2.6229282E+01  0.0000000E+00
 2.6252628E+01  0.0000000E+00
 2.6275974E+01  0.0000000E+00
 2.6299320E+01  0.0000000E+00
 2.6322668E+01  0.0000000E+00
