D:\DATA\UserData\CuiTian20190403\CWH\BA\BA_3.tif: 2-theta Scan
2-Theta Angle (Degrees)
Intensity
       1165
 1.1624325E-02  4.7341961E+01
 3.4872975E-02  4.6549541E+01
 5.8121622E-02  4.3785606E+01
 8.1370272E-02  4.0224552E+01
 1.0461892E-01  4.0377792E+01
 1.2786756E-01  4.0943161E+01
 1.5111622E-01  3.9555866E+01
 1.7436486E-01  4.0388107E+01
 1.9761352E-01  3.9183624E+01
 2.2086217E-01  3.7862114E+01
 2.4411082E-01  3.8238445E+01
 2.6735947E-01  3.8404381E+01
 2.9060811E-01  3.7669125E+01
 3.1385678E-01  3.7671734E+01
 3.3710542E-01  3.6754070E+01
 3.6035407E-01  3.7344372E+01
 3.8360271E-01  3.8152077E+01
 4.0685135E-01  3.7122021E+01
 4.3010002E-01  3.6552139E+01
 4.5334867E-01  3.6857258E+01
 4.7659731E-01  3.6560295E+01
 4.9984595E-01  3.6716095E+01
 5.2309459E-01  3.6880527E+01
 5.4634327E-01  3.6846287E+01
 5.6959194E-01  3.6402294E+01
 5.9284055E-01  3.6383392E+01
 6.1608922E-01  3.6844276E+01
 6.3933784E-01  3.7488171E+01
 6.6258651E-01  3.7417236E+01
 6.8583518E-01  3.7377632E+01
 7.0908380E-01  3.7630802E+01
 7.3233247E-01  3.7387707E+01
 7.5558108E-01  3.7288891E+01
 7.7882975E-01  3.7050976E+01
 8.0207843E-01  3.7018349E+01
 8.2532704E-01  3.7153912E+01
 8.4857571E-01  3.6894993E+01
 8.7182432E-01  3.6986176E+01
 8.9507300E-01  3.7519970E+01
 9.1832167E-01  3.7910160E+01
 9.4157028E-01  3.7131039E+01
 9.6481895E-01  3.6816822E+01
 9.8806763E-01  3.7049999E+01
 1.0113163E+00  3.7739582E+01
 1.0345649E+00  3.8051586E+01
 1.0578135E+00  3.7891716E+01
 1.0810622E+00  3.7869488E+01
 1.1043109E+00  3.7449009E+01
 1.1275595E+00  3.7537457E+01
 1.1508081E+00  3.8000771E+01
 1.1740568E+00  3.8216198E+01
 1.1973054E+00  3.8091022E+01
 1.2205541E+00  3.8020180E+01
 1.2438028E+00  3.8251747E+01
 1.2670513E+00  3.8660072E+01
 1.2903000E+00  3.8554871E+01
 1.3135487E+00  3.8156521E+01
 1.3367974E+00  3.8154892E+01
 1.3600460E+00  3.8402683E+01
 1.3832946E+00  3.8684025E+01
 1.4065433E+00  3.8935154E+01
 1.4297919E+00  3.9005234E+01
 1.4530406E+00  3.8687252E+01
 1.4762893E+00  3.9026741E+01
 1.4995378E+00  3.9655540E+01
 1.5227865E+00  3.9545086E+01
 1.5460352E+00  3.8985981E+01
 1.5692838E+00  3.9234188E+01
 1.5925325E+00  3.9786057E+01
 1.6157812E+00  4.0007790E+01
 1.6390297E+00  4.0330105E+01
 1.6622784E+00  4.1078648E+01
 1.6855271E+00  4.1109520E+01
 1.7087758E+00  4.1156986E+01
 1.7320244E+00  4.1410648E+01
 1.7552730E+00  4.1480942E+01
 1.7785217E+00  4.1721748E+01
 1.8017703E+00  4.2082584E+01
 1.8250190E+00  4.2790665E+01
 1.8482677E+00  4.3879940E+01
 1.8715162E+00  4.6182228E+01
 1.8947649E+00  5.1069229E+01
 1.9180136E+00  6.2422379E+01
 1.9412622E+00  8.1758621E+01
 1.9645109E+00  1.0563421E+02
 1.9877595E+00  1.3180672E+02
 2.0110083E+00  1.5626802E+02
 2.0342569E+00  1.8111340E+02
 2.0575054E+00  2.0414146E+02
 2.0807540E+00  2.2780417E+02
 2.1040027E+00  2.5340894E+02
 2.1272514E+00  2.7973209E+02
 2.1505001E+00  3.0924692E+02
 2.1737487E+00  3.4313666E+02
 2.1969974E+00  3.7985440E+02
 2.2202461E+00  4.1626794E+02
 2.2434947E+00  4.4595157E+02
 2.2667434E+00  4.7103058E+02
 2.2899919E+00  4.9363693E+02
 2.3132405E+00  5.1395209E+02
 2.3364892E+00  5.3298969E+02
 2.3597379E+00  5.5257056E+02
 2.3829865E+00  5.7242773E+02
 2.4062352E+00  5.9220569E+02
 2.4294839E+00  6.1123511E+02
 2.4527326E+00  6.3162567E+02
 2.4759812E+00  6.5198834E+02
 2.4992299E+00  6.6901801E+02
 2.5224783E+00  6.8657129E+02
 2.5457270E+00  7.0146777E+02
 2.5689757E+00  7.1591876E+02
 2.5922244E+00  7.2963470E+02
 2.6154730E+00  7.4595251E+02
 2.6387217E+00  7.5993945E+02
 2.6619704E+00  7.7429791E+02
 2.6852190E+00  7.9064752E+02
 2.7084677E+00  8.0660968E+02
 2.7317164E+00  8.1890338E+02
 2.7549651E+00  8.3210620E+02
 2.7782135E+00  8.4534137E+02
 2.8014622E+00  8.5801074E+02
 2.8247108E+00  8.7122003E+02
 2.8479595E+00  8.8390582E+02
 2.8712082E+00  8.9798468E+02
 2.8944569E+00  9.1044098E+02
 2.9177055E+00  9.2086871E+02
 2.9409542E+00  9.3057886E+02
 2.9642029E+00  9.4039813E+02
 2.9874516E+00  9.5223065E+02
 3.0107000E+00  9.6308679E+02
 3.0339487E+00  9.7276587E+02
 3.0571973E+00  9.8354022E+02
 3.0804460E+00  9.9325726E+02
 3.1036947E+00  1.0040671E+03
 3.1269433E+00  1.0144553E+03
 3.1501920E+00  1.0229321E+03
 3.1734407E+00  1.0316089E+03
 3.1966894E+00  1.0402238E+03
 3.2199380E+00  1.0478807E+03
 3.2431865E+00  1.0536302E+03
 3.2664351E+00  1.0586169E+03
 3.2896838E+00  1.0634257E+03
 3.3129325E+00  1.0717701E+03
 3.3361812E+00  1.0837585E+03
 3.3594298E+00  1.0948026E+03
 3.3826785E+00  1.1039753E+03
 3.4059272E+00  1.1099006E+03
 3.4291759E+00  1.1107865E+03
 3.4524245E+00  1.1124307E+03
 3.4756732E+00  1.1193107E+03
 3.4989216E+00  1.1277625E+03
 3.5221703E+00  1.1342162E+03
 3.5454190E+00  1.1383953E+03
 3.5686677E+00  1.1451609E+03
 3.5919163E+00  1.1530172E+03
 3.6151650E+00  1.1572236E+03
 3.6384137E+00  1.1606331E+03
 3.6616623E+00  1.1644512E+03
 3.6849110E+00  1.1677877E+03
 3.7081597E+00  1.1735272E+03
 3.7314081E+00  1.1815511E+03
 3.7546568E+00  1.1868926E+03
 3.7779055E+00  1.1910216E+03
 3.8011541E+00  1.1971359E+03
 3.8244028E+00  1.2004032E+03
 3.8476515E+00  1.2035963E+03
 3.8709002E+00  1.2087936E+03
 3.8941488E+00  1.2130297E+03
 3.9173975E+00  1.2164225E+03
 3.9406462E+00  1.2188451E+03
 3.9638946E+00  1.2202240E+03
 3.9871433E+00  1.2234878E+03
 4.0103922E+00  1.2286168E+03
 4.0336409E+00  1.2319514E+03
 4.0568895E+00  1.2343402E+03
 4.0801377E+00  1.2376085E+03
 4.1033864E+00  1.2407681E+03
 4.1266351E+00  1.2436204E+03
 4.1498837E+00  1.2449240E+03
 4.1731324E+00  1.2454877E+03
 4.1963811E+00  1.2462014E+03
 4.2196298E+00  1.2492214E+03
 4.2428784E+00  1.2531608E+03
 4.2661271E+00  1.2545480E+03
 4.2893758E+00  1.2551691E+03
 4.3126245E+00  1.2580828E+03
 4.3358731E+00  1.2602657E+03
 4.3591218E+00  1.2620225E+03
 4.3823705E+00  1.2659287E+03
 4.4056191E+00  1.2686185E+03
 4.4288678E+00  1.2703257E+03
 4.4521165E+00  1.2742419E+03
 4.4753652E+00  1.2768682E+03
 4.4986138E+00  1.2770653E+03
 4.5218625E+00  1.2779757E+03
 4.5451112E+00  1.2789403E+03
 4.5683594E+00  1.2788063E+03
 4.5916080E+00  1.2805874E+03
 4.6148567E+00  1.2833921E+03
 4.6381054E+00  1.2852687E+03
 4.6613541E+00  1.2851398E+03
 4.6846027E+00  1.2833479E+03
 4.7078514E+00  1.2837278E+03
 4.7311001E+00  1.2840835E+03
 4.7543488E+00  1.2860187E+03
 4.7775974E+00  1.2876609E+03
 4.8008461E+00  1.2876204E+03
 4.8240948E+00  1.2858173E+03
 4.8473434E+00  1.2872968E+03
 4.8705921E+00  1.2885127E+03
 4.8938408E+00  1.2889713E+03
 4.9170895E+00  1.2902621E+03
 4.9403381E+00  1.2906309E+03
 4.9635868E+00  1.2901595E+03
 4.9868355E+00  1.2902751E+03
 5.0100842E+00  1.2910431E+03
 5.0333328E+00  1.2907137E+03
 5.0565810E+00  1.2904642E+03
 5.0798297E+00  1.2900298E+03
 5.1030784E+00  1.2895521E+03
 5.1263270E+00  1.2922920E+03
 5.1495757E+00  1.2936090E+03
 5.1728244E+00  1.2930293E+03
 5.1960731E+00  1.2931683E+03
 5.2193217E+00  1.2935103E+03
 5.2425704E+00  1.2917734E+03
 5.2658191E+00  1.2925697E+03
 5.2890677E+00  1.2933262E+03
 5.3123164E+00  1.2915031E+03
 5.3355651E+00  1.2910934E+03
 5.3588138E+00  1.2903955E+03
 5.3820624E+00  1.2913065E+03
 5.4053111E+00  1.2914631E+03
 5.4285598E+00  1.2904146E+03
 5.4518085E+00  1.2918524E+03
 5.4750571E+00  1.2934286E+03
 5.4983058E+00  1.2939913E+03
 5.5215540E+00  1.2922882E+03
 5.5448027E+00  1.2898051E+03
 5.5680513E+00  1.2905162E+03
 5.5913000E+00  1.2902695E+03
 5.6145487E+00  1.2895643E+03
 5.6377974E+00  1.2902474E+03
 5.6610460E+00  1.2894248E+03
 5.6842947E+00  1.2899009E+03
 5.7075434E+00  1.2903745E+03
 5.7307920E+00  1.2887911E+03
 5.7540407E+00  1.2882031E+03
 5.7772894E+00  1.2871804E+03
 5.8005381E+00  1.2885389E+03
 5.8237867E+00  1.2895347E+03
 5.8470354E+00  1.2876523E+03
 5.8702841E+00  1.2860842E+03
 5.8935328E+00  1.2875969E+03
 5.9167814E+00  1.2881676E+03
 5.9400301E+00  1.2872017E+03
 5.9632788E+00  1.2856459E+03
 5.9865274E+00  1.2860455E+03
 6.0097756E+00  1.2854404E+03
 6.0330243E+00  1.2835685E+03
 6.0562730E+00  1.2822101E+03
 6.0795217E+00  1.2812537E+03
 6.1027703E+00  1.2804987E+03
 6.1260190E+00  1.2797134E+03
 6.1492677E+00  1.2799788E+03
 6.1725163E+00  1.2800718E+03
 6.1957650E+00  1.2798135E+03
 6.2190137E+00  1.2799447E+03
 6.2422624E+00  1.2797628E+03
 6.2655110E+00  1.2796080E+03
 6.2887597E+00  1.2793230E+03
 6.3120084E+00  1.2781709E+03
 6.3352571E+00  1.2771454E+03
 6.3585057E+00  1.2770327E+03
 6.3817544E+00  1.2778651E+03
 6.4050031E+00  1.2776563E+03
 6.4282517E+00  1.2761753E+03
 6.4515004E+00  1.2751772E+03
 6.4747491E+00  1.2761873E+03
 6.4979973E+00  1.2785944E+03
 6.5212460E+00  1.2778766E+03
 6.5444946E+00  1.2765193E+03
 6.5677433E+00  1.2746144E+03
 6.5909920E+00  1.2731064E+03
 6.6142406E+00  1.2727411E+03
 6.6374893E+00  1.2716595E+03
 6.6607380E+00  1.2713551E+03
 6.6839867E+00  1.2719805E+03
 6.7072353E+00  1.2722638E+03
 6.7304840E+00  1.2717067E+03
 6.7537327E+00  1.2722480E+03
 6.7769814E+00  1.2705511E+03
 6.8002300E+00  1.2679379E+03
 6.8234787E+00  1.2667611E+03
 6.8467274E+00  1.2671199E+03
 6.8699760E+00  1.2658507E+03
 6.8932247E+00  1.2653545E+03
 6.9164734E+00  1.2658195E+03
 6.9397221E+00  1.2653632E+03
 6.9629703E+00  1.2651132E+03
 6.9862189E+00  1.2644519E+03
 7.0094676E+00  1.2638252E+03
 7.0327163E+00  1.2636047E+03
 7.0559649E+00  1.2641676E+03
 7.0792136E+00  1.2642676E+03
 7.1024623E+00  1.2632153E+03
 7.1257110E+00  1.2617217E+03
 7.1489596E+00  1.2617418E+03
 7.1722083E+00  1.2614447E+03
 7.1954570E+00  1.2594508E+03
 7.2187057E+00  1.2592261E+03
 7.2419543E+00  1.2587289E+03
 7.2652030E+00  1.2570836E+03
 7.2884517E+00  1.2556675E+03
 7.3117003E+00  1.2544425E+03
 7.3349490E+00  1.2540007E+03
 7.3581977E+00  1.2545632E+03
 7.3814464E+00  1.2544501E+03
 7.4046950E+00  1.2547150E+03
 7.4279437E+00  1.2535244E+03
 7.4511919E+00  1.2527444E+03
 7.4744406E+00  1.2524545E+03
 7.4976892E+00  1.2515607E+03
 7.5209379E+00  1.2515917E+03
 7.5441866E+00  1.2517303E+03
 7.5674353E+00  1.2510913E+03
 7.5906839E+00  1.2509933E+03
 7.6139326E+00  1.2513838E+03
 7.6371813E+00  1.2520536E+03
 7.6604300E+00  1.2513972E+03
 7.6836786E+00  1.2507240E+03
 7.7069273E+00  1.2498264E+03
 7.7301760E+00  1.2489175E+03
 7.7534246E+00  1.2484395E+03
 7.7766733E+00  1.2468060E+03
 7.7999220E+00  1.2467153E+03
 7.8231707E+00  1.2488866E+03
 7.8464193E+00  1.2495486E+03
 7.8696680E+00  1.2478296E+03
 7.8929167E+00  1.2469404E+03
 7.9161649E+00  1.2460795E+03
 7.9394135E+00  1.2468574E+03
 7.9626622E+00  1.2475275E+03
 7.9859109E+00  1.2466006E+03
 8.0091600E+00  1.2447213E+03
 8.0324087E+00  1.2447598E+03
 8.0556574E+00  1.2454758E+03
 8.0789061E+00  1.2447399E+03
 8.1021547E+00  1.2436395E+03
 8.1254034E+00  1.2424866E+03
 8.1486521E+00  1.2445056E+03
 8.1718998E+00  1.2443755E+03
 8.1951485E+00  1.2415880E+03
 8.2183971E+00  1.2405991E+03
 8.2416458E+00  1.2408281E+03
 8.2648945E+00  1.2410110E+03
 8.2881432E+00  1.2414683E+03
 8.3113918E+00  1.2425737E+03
 8.3346405E+00  1.2424821E+03
 8.3578892E+00  1.2414753E+03
 8.3811378E+00  1.2407119E+03
 8.4043865E+00  1.2402358E+03
 8.4276352E+00  1.2402585E+03
 8.4508839E+00  1.2409689E+03
 8.4741325E+00  1.2410210E+03
 8.4973812E+00  1.2406355E+03
 8.5206299E+00  1.2400573E+03
 8.5438786E+00  1.2404408E+03
 8.5671272E+00  1.2407257E+03
 8.5903759E+00  1.2407936E+03
 8.6136246E+00  1.2417384E+03
 8.6368732E+00  1.2420162E+03
 8.6601219E+00  1.2430579E+03
 8.6833706E+00  1.2442416E+03
 8.7066193E+00  1.2453033E+03
 8.7298679E+00  1.2466307E+03
 8.7531166E+00  1.2494103E+03
 8.7763653E+00  1.2562985E+03
 8.7996140E+00  1.2644661E+03
 8.8228626E+00  1.2749885E+03
 8.8461113E+00  1.2848478E+03
 8.8693600E+00  1.2888615E+03
 8.8926086E+00  1.2849589E+03
 8.9158573E+00  1.2765297E+03
 8.9391060E+00  1.2673723E+03
 8.9623547E+00  1.2603552E+03
 8.9856033E+00  1.2548951E+03
 9.0088520E+00  1.2501050E+03
 9.0321007E+00  1.2473424E+03
 9.0553493E+00  1.2447621E+03
 9.0785980E+00  1.2438405E+03
 9.1018467E+00  1.2448521E+03
 9.1250944E+00  1.2476842E+03
 9.1483431E+00  1.2520846E+03
 9.1715918E+00  1.2586273E+03
 9.1948404E+00  1.2698987E+03
 9.2180891E+00  1.2823806E+03
 9.2413378E+00  1.2828290E+03
 9.2645864E+00  1.2733652E+03
 9.2878351E+00  1.2609722E+03
 9.3110838E+00  1.2516252E+03
 9.3343325E+00  1.2475487E+03
 9.3575811E+00  1.2458296E+03
 9.3808298E+00  1.2437773E+03
 9.4040785E+00  1.2427224E+03
 9.4273272E+00  1.2421703E+03
 9.4505758E+00  1.2405549E+03
 9.4738245E+00  1.2404050E+03
 9.4970732E+00  1.2411278E+03
 9.5203218E+00  1.2423292E+03
 9.5435705E+00  1.2505106E+03
 9.5668192E+00  1.2851191E+03
 9.5900679E+00  1.3369368E+03
 9.6133165E+00  1.3633331E+03
 9.6365652E+00  1.3489836E+03
 9.6598139E+00  1.3106757E+03
 9.6830626E+00  1.2482338E+03
 9.7063112E+00  1.2436622E+03
 9.7295599E+00  1.2423960E+03
 9.7528086E+00  1.2442385E+03
 9.7760572E+00  1.2459982E+03
 9.7993059E+00  1.2462379E+03
 9.8225546E+00  1.2460276E+03
 9.8458033E+00  1.2466674E+03
 9.8690519E+00  1.2457432E+03
 9.8923006E+00  1.2457369E+03
 9.9155493E+00  1.2466042E+03
 9.9387980E+00  1.2478475E+03
 9.9620466E+00  1.2508186E+03
 9.9852953E+00  1.2557085E+03
 1.0008544E+01  1.2621957E+03
 1.0031793E+01  1.2685734E+03
 1.0055041E+01  1.2740911E+03
 1.0078289E+01  1.2763522E+03
 1.0101538E+01  1.2789244E+03
 1.0124786E+01  1.2806205E+03
 1.0148035E+01  1.2837926E+03
 1.0171284E+01  1.2866636E+03
 1.0194532E+01  1.2883112E+03
 1.0217781E+01  1.2880090E+03
 1.0241030E+01  1.2844519E+03
 1.0264278E+01  1.2781548E+03
 1.0287527E+01  1.2732566E+03
 1.0310776E+01  1.2700687E+03
 1.0334024E+01  1.2650267E+03
 1.0357273E+01  1.2592891E+03
 1.0380522E+01  1.2670145E+03
 1.0403770E+01  1.2747886E+03
 1.0427019E+01  1.2775428E+03
 1.0450268E+01  1.2777683E+03
 1.0473516E+01  1.2800277E+03
 1.0496765E+01  1.2822242E+03
 1.0520014E+01  1.2826544E+03
 1.0543262E+01  1.2840743E+03
 1.0566511E+01  1.2861002E+03
 1.0589760E+01  1.2869069E+03
 1.0613008E+01  1.2880826E+03
 1.0636257E+01  1.2924460E+03
 1.0659506E+01  1.3011570E+03
 1.0682755E+01  1.3192943E+03
 1.0706003E+01  1.3346451E+03
 1.0729252E+01  1.3156514E+03
 1.0752501E+01  1.3027572E+03
 1.0775749E+01  1.3001808E+03
 1.0798998E+01  1.3010752E+03
 1.0822247E+01  1.3025248E+03
 1.0845495E+01  1.3010593E+03
 1.0868744E+01  1.2986842E+03
 1.0891993E+01  1.2993802E+03
 1.0915241E+01  1.3022117E+03
 1.0938490E+01  1.3058994E+03
 1.0961739E+01  1.3094066E+03
 1.0984987E+01  1.3115519E+03
 1.1008236E+01  1.3132568E+03
 1.1031485E+01  1.3154844E+03
 1.1054732E+01  1.3186337E+03
 1.1077981E+01  1.3231443E+03
 1.1101230E+01  1.3283677E+03
 1.1124478E+01  1.3356710E+03
 1.1147727E+01  1.3494197E+03
 1.1170976E+01  1.3744435E+03
 1.1194224E+01  1.4211270E+03
 1.1217473E+01  1.5087175E+03
 1.1240722E+01  1.6967056E+03
 1.1263970E+01  1.9125282E+03
 1.1287219E+01  2.0525967E+03
 1.1310468E+01  1.9556096E+03
 1.1333716E+01  1.6958817E+03
 1.1356965E+01  1.5343754E+03
 1.1380214E+01  1.4530106E+03
 1.1403462E+01  1.4104077E+03
 1.1426711E+01  1.3877191E+03
 1.1449960E+01  1.3747573E+03
 1.1473208E+01  1.3648495E+03
 1.1496457E+01  1.3543291E+03
 1.1519706E+01  1.3470178E+03
 1.1542954E+01  1.3404485E+03
 1.1566203E+01  1.3354023E+03
 1.1589452E+01  1.3339037E+03
 1.1612700E+01  1.3325334E+03
 1.1635949E+01  1.3339409E+03
 1.1659198E+01  1.3351136E+03
 1.1682446E+01  1.3353992E+03
 1.1705695E+01  1.3383944E+03
 1.1728944E+01  1.3416301E+03
 1.1752192E+01  1.3455276E+03
 1.1775441E+01  1.3536622E+03
 1.1798690E+01  1.3667327E+03
 1.1821939E+01  1.3825386E+03
 1.1845187E+01  1.4038762E+03
 1.1868436E+01  1.4284081E+03
 1.1891685E+01  1.4499661E+03
 1.1914933E+01  1.4586118E+03
 1.1938182E+01  1.4599319E+03
 1.1961431E+01  1.4568204E+03
 1.1984679E+01  1.4432128E+03
 1.2007927E+01  1.4248857E+03
 1.2031176E+01  1.4047784E+03
 1.2054424E+01  1.3843496E+03
 1.2077673E+01  1.3688761E+03
 1.2100922E+01  1.3597844E+03
 1.2124170E+01  1.3540304E+03
 1.2147419E+01  1.3497561E+03
 1.2170668E+01  1.3483607E+03
 1.2193916E+01  1.3477709E+03
 1.2217165E+01  1.3477566E+03
 1.2240414E+01  1.3476700E+03
 1.2263662E+01  1.3489341E+03
 1.2286911E+01  1.3508486E+03
 1.2310160E+01  1.3515392E+03
 1.2333408E+01  1.3510280E+03
 1.2356657E+01  1.3515930E+03
 1.2379906E+01  1.3543057E+03
 1.2403154E+01  1.3556630E+03
 1.2426403E+01  1.3584933E+03
 1.2449652E+01  1.3613683E+03
 1.2472900E+01  1.3668904E+03
 1.2496149E+01  1.3811824E+03
 1.2519398E+01  1.3940354E+03
 1.2542646E+01  1.4050898E+03
 1.2565895E+01  1.4163745E+03
 1.2589144E+01  1.4277695E+03
 1.2612392E+01  1.4361621E+03
 1.2635641E+01  1.4408347E+03
 1.2658890E+01  1.4420138E+03
 1.2682138E+01  1.4383159E+03
 1.2705387E+01  1.4344274E+03
 1.2728636E+01  1.4331132E+03
 1.2751884E+01  1.4326265E+03
 1.2775133E+01  1.4355050E+03
 1.2798382E+01  1.4414347E+03
 1.2821630E+01  1.4463475E+03
 1.2844879E+01  1.4535905E+03
 1.2868128E+01  1.4643030E+03
 1.2891376E+01  1.4856376E+03
 1.2914625E+01  1.5356816E+03
 1.2937874E+01  1.6125664E+03
 1.2961122E+01  1.6663104E+03
 1.2984370E+01  1.6609385E+03
 1.3007619E+01  1.6951904E+03
 1.3030868E+01  1.7482214E+03
 1.3054116E+01  1.8812802E+03
 1.3077365E+01  2.0154298E+03
 1.3100614E+01  2.0194818E+03
 1.3123862E+01  1.9155455E+03
 1.3147111E+01  1.8195433E+03
 1.3170360E+01  1.6596538E+03
 1.3193608E+01  1.5267915E+03
 1.3216857E+01  1.4960073E+03
 1.3240106E+01  1.4808202E+03
 1.3263354E+01  1.4713951E+03
 1.3286603E+01  1.4684065E+03
 1.3309852E+01  1.4681891E+03
 1.3333100E+01  1.4672933E+03
 1.3356349E+01  1.4670984E+03
 1.3379598E+01  1.4674277E+03
 1.3402846E+01  1.4704708E+03
 1.3426095E+01  1.4746389E+03
 1.3449344E+01  1.4759846E+03
 1.3472592E+01  1.4791035E+03
 1.3495841E+01  1.4828048E+03
 1.3519090E+01  1.4865466E+03
 1.3542338E+01  1.4888728E+03
 1.3565587E+01  1.4876495E+03
 1.3588836E+01  1.4886008E+03
 1.3612084E+01  1.4884397E+03
 1.3635333E+01  1.4885309E+03
 1.3658582E+01  1.4895793E+03
 1.3681830E+01  1.4901611E+03
 1.3705079E+01  1.4901616E+03
 1.3728328E+01  1.4879287E+03
 1.3751576E+01  1.4888206E+03
 1.3774825E+01  1.4892570E+03
 1.3798074E+01  1.4893911E+03
 1.3821322E+01  1.4889382E+03
 1.3844571E+01  1.4906205E+03
 1.3867820E+01  1.4935441E+03
 1.3891068E+01  1.4974197E+03
 1.3914316E+01  1.5000371E+03
 1.3937565E+01  1.5019183E+03
 1.3960814E+01  1.5034418E+03
 1.3984062E+01  1.5070610E+03
 1.4007311E+01  1.5124082E+03
 1.4030560E+01  1.5164869E+03
 1.4053808E+01  1.5201093E+03
 1.4077057E+01  1.5246865E+03
 1.4100306E+01  1.5322792E+03
 1.4123554E+01  1.5403427E+03
 1.4146803E+01  1.5496207E+03
 1.4170052E+01  1.5593578E+03
 1.4193300E+01  1.5675273E+03
 1.4216549E+01  1.5700062E+03
 1.4239798E+01  1.5689591E+03
 1.4263046E+01  1.5650369E+03
 1.4286295E+01  1.5615684E+03
 1.4309544E+01  1.5562908E+03
 1.4332792E+01  1.5526383E+03
 1.4356041E+01  1.5512848E+03
 1.4379290E+01  1.5507935E+03
 1.4402538E+01  1.5514194E+03
 1.4425787E+01  1.5498864E+03
 1.4449036E+01  1.5508998E+03
 1.4472284E+01  1.5584545E+03
 1.4495533E+01  1.5673499E+03
 1.4518782E+01  1.5716750E+03
 1.4542030E+01  1.5742153E+03
 1.4565279E+01  1.5762584E+03
 1.4588528E+01  1.5749097E+03
 1.4611776E+01  1.5716925E+03
 1.4635025E+01  1.5713844E+03
 1.4658274E+01  1.5709608E+03
 1.4681522E+01  1.5689938E+03
 1.4704771E+01  1.5687100E+03
 1.4728020E+01  1.5695012E+03
 1.4751268E+01  1.5707217E+03
 1.4774517E+01  1.5720006E+03
 1.4797766E+01  1.5721082E+03
 1.4821014E+01  1.5724308E+03
 1.4844263E+01  1.5750771E+03
 1.4867512E+01  1.5770692E+03
 1.4890759E+01  1.5794240E+03
 1.4914008E+01  1.5811831E+03
 1.4937257E+01  1.5846310E+03
 1.4960505E+01  1.5855985E+03
 1.4983754E+01  1.5880840E+03
 1.5007003E+01  1.5921891E+03
 1.5030252E+01  1.5941765E+03
 1.5053500E+01  1.5941545E+03
 1.5076749E+01  1.5942502E+03
 1.5099998E+01  1.5970718E+03
 1.5123246E+01  1.6001519E+03
 1.5146495E+01  1.6019613E+03
 1.5169744E+01  1.6053022E+03
 1.5192992E+01  1.6072091E+03
 1.5216241E+01  1.6078184E+03
 1.5239490E+01  1.6096510E+03
 1.5262738E+01  1.6107463E+03
 1.5285987E+01  1.6112050E+03
 1.5309236E+01  1.6124321E+03
 1.5332484E+01  1.6142002E+03
 1.5355733E+01  1.6189044E+03
 1.5378982E+01  1.6208779E+03
 1.5402230E+01  1.6230184E+03
 1.5425479E+01  1.6247285E+03
 1.5448728E+01  1.6274034E+03
 1.5471976E+01  1.6328334E+03
 1.5495225E+01  1.6342046E+03
 1.5518474E+01  1.6364966E+03
 1.5541722E+01  1.6381201E+03
 1.5564971E+01  1.6432920E+03
 1.5588220E+01  1.6465474E+03
 1.5611468E+01  1.6475741E+03
 1.5634717E+01  1.6523650E+03
 1.5657966E+01  1.6539497E+03
 1.5681214E+01  1.6568563E+03
 1.5704463E+01  1.6605266E+03
 1.5727712E+01  1.6638934E+03
 1.5750960E+01  1.6672954E+03
 1.5774209E+01  1.6670490E+03
 1.5797458E+01  1.6717266E+03
 1.5820706E+01  1.6785109E+03
 1.5843954E+01  1.6879939E+03
 1.5867203E+01  1.7002275E+03
 1.5890451E+01  1.7054082E+03
 1.5913700E+01  1.7099307E+03
 1.5936949E+01  1.7103477E+03
 1.5960197E+01  1.7049747E+03
 1.5983446E+01  1.7043713E+03
 1.6006695E+01  1.7032371E+03
 1.6029943E+01  1.7069814E+03
 1.6053192E+01  1.7087531E+03
 1.6076441E+01  1.7154657E+03
 1.6099689E+01  1.7247488E+03
 1.6122938E+01  1.7297742E+03
 1.6146187E+01  1.7388768E+03
 1.6169436E+01  1.7433185E+03
 1.6192684E+01  1.7480448E+03
 1.6215933E+01  1.7482067E+03
 1.6239182E+01  1.7420605E+03
 1.6262430E+01  1.7357275E+03
 1.6285679E+01  1.7267212E+03
 1.6308928E+01  1.7245803E+03
 1.6332176E+01  1.7207527E+03
 1.6355425E+01  1.7190547E+03
 1.6378674E+01  1.7225729E+03
 1.6401922E+01  1.7237322E+03
 1.6425171E+01  1.7250535E+03
 1.6448420E+01  1.7229603E+03
 1.6471668E+01  1.7251729E+03
 1.6494917E+01  1.7285059E+03
 1.6518166E+01  1.7290574E+03
 1.6541414E+01  1.7314338E+03
 1.6564663E+01  1.7317236E+03
 1.6587912E+01  1.7345891E+03
 1.6611160E+01  1.7341016E+03
 1.6634409E+01  1.7375784E+03
 1.6657658E+01  1.7418419E+03
 1.6680906E+01  1.7438779E+03
 1.6704155E+01  1.7481376E+03
 1.6727404E+01  1.7483495E+03
 1.6750652E+01  1.7526261E+03
 1.6773901E+01  1.7544462E+03
 1.6797150E+01  1.7540046E+03
 1.6820398E+01  1.7568776E+03
 1.6843647E+01  1.7581741E+03
 1.6866896E+01  1.7621654E+03
 1.6890144E+01  1.7675547E+03
 1.6913393E+01  1.7715894E+03
 1.6936642E+01  1.7744110E+03
 1.6959890E+01  1.7762435E+03
 1.6983139E+01  1.7804950E+03
 1.7006388E+01  1.7812705E+03
 1.7029636E+01  1.7852438E+03
 1.7052885E+01  1.7855453E+03
 1.7076134E+01  1.7877197E+03
 1.7099382E+01  1.7874562E+03
 1.7122631E+01  1.7883369E+03
 1.7145880E+01  1.7913370E+03
 1.7169128E+01  1.7925760E+03
 1.7192377E+01  1.7960884E+03
 1.7215626E+01  1.7981918E+03
 1.7238874E+01  1.8015142E+03
 1.7262123E+01  1.8030784E+03
 1.7285370E+01  1.8061097E+03
 1.7308619E+01  1.8111854E+03
 1.7331867E+01  1.8146378E+03
 1.7355116E+01  1.8170410E+03
 1.7378365E+01  1.8209944E+03
 1.7401613E+01  1.8247004E+03
 1.7424862E+01  1.8286466E+03
 1.7448111E+01  1.8356095E+03
 1.7471359E+01  1.8437426E+03
 1.7494608E+01  1.8503160E+03
 1.7517857E+01  1.8580796E+03
 1.7541105E+01  1.8705751E+03
 1.7564354E+01  1.8839811E+03
 1.7587603E+01  1.8996052E+03
 1.7610851E+01  1.9147435E+03
 1.7634100E+01  1.9279976E+03
 1.7657349E+01  1.9344567E+03
 1.7680597E+01  1.9351344E+03
 1.7703846E+01  1.9341447E+03
 1.7727095E+01  1.9315074E+03
 1.7750343E+01  1.9295557E+03
 1.7773592E+01  1.9278962E+03
 1.7796841E+01  1.9295879E+03
 1.7820089E+01  1.9277487E+03
 1.7843338E+01  1.9229861E+03
 1.7866587E+01  1.9190819E+03
 1.7889835E+01  1.9192092E+03
 1.7913084E+01  1.9204678E+03
 1.7936333E+01  1.9208555E+03
 1.7959581E+01  1.9192361E+03
 1.7982830E+01  1.9174796E+03
 1.8006079E+01  1.9172781E+03
 1.8029327E+01  1.9149053E+03
 1.8052576E+01  1.9129077E+03
 1.8075825E+01  1.9112214E+03
 1.8099073E+01  1.9125568E+03
 1.8122322E+01  1.9159215E+03
 1.8145571E+01  1.9200031E+03
 1.8168819E+01  1.9224540E+03
 1.8192068E+01  1.9267855E+03
 1.8215317E+01  1.9328834E+03
 1.8238565E+01  1.9394977E+03
 1.8261814E+01  1.9452904E+03
 1.8285063E+01  1.9543921E+03
 1.8308311E+01  1.9683147E+03
 1.8331560E+01  1.9851788E+03
 1.8354809E+01  2.0143351E+03
 1.8378057E+01  2.0677542E+03
 1.8401306E+01  2.1514895E+03
 1.8424555E+01  2.5047556E+03
 1.8447803E+01  2.9666716E+03
 1.8471052E+01  3.1775059E+03
 1.8494301E+01  3.1715474E+03
 1.8517550E+01  3.0435139E+03
 1.8540798E+01  2.7071514E+03
 1.8564047E+01  2.3108003E+03
 1.8587296E+01  2.1411743E+03
 1.8610544E+01  2.0674402E+03
 1.8633793E+01  2.0307959E+03
 1.8657042E+01  2.0081250E+03
 1.8680290E+01  1.9922396E+03
 1.8703539E+01  1.9810220E+03
 1.8726788E+01  1.9763440E+03
 1.8750036E+01  1.9711075E+03
 1.8773285E+01  1.9647422E+03
 1.8796534E+01  1.9618185E+03
 1.8819782E+01  1.9620806E+03
 1.8843031E+01  1.9620964E+03
 1.8866280E+01  1.9654895E+03
 1.8889528E+01  1.9664561E+03
 1.8912777E+01  1.9660088E+03
 1.8936026E+01  1.9695168E+03
 1.8959274E+01  1.9767391E+03
 1.8982523E+01  1.9849452E+03
 1.9005772E+01  1.9839213E+03
 1.9029020E+01  1.9779458E+03
 1.9052269E+01  1.9749880E+03
 1.9075518E+01  1.9756848E+03
 1.9098766E+01  1.9789989E+03
 1.9122015E+01  1.9801650E+03
 1.9145264E+01  1.9817240E+03
 1.9168512E+01  1.9837637E+03
 1.9191759E+01  1.9845220E+03
 1.9215008E+01  1.9871031E+03
 1.9238256E+01  1.9891781E+03
 1.9261505E+01  1.9899186E+03
 1.9284754E+01  1.9886154E+03
 1.9308002E+01  1.9880160E+03
 1.9331251E+01  1.9867490E+03
 1.9354500E+01  1.9849788E+03
 1.9377748E+01  1.9866993E+03
 1.9400997E+01  1.9884301E+03
 1.9424246E+01  1.9886628E+03
 1.9447495E+01  1.9859081E+03
 1.9470743E+01  1.9870873E+03
 1.9493992E+01  1.9919335E+03
 1.9517241E+01  1.9951539E+03
 1.9540489E+01  2.0008749E+03
 1.9563738E+01  2.0080493E+03
 1.9586987E+01  2.0141652E+03
 1.9610235E+01  2.0179817E+03
 1.9633484E+01  2.0225679E+03
 1.9656733E+01  2.0207963E+03
 1.9679981E+01  2.0161626E+03
 1.9703230E+01  2.0116587E+03
 1.9726479E+01  2.0124423E+03
 1.9749727E+01  2.0130260E+03
 1.9772976E+01  2.0157428E+03
 1.9796225E+01  2.0179025E+03
 1.9819473E+01  2.0167819E+03
 1.9842722E+01  2.0206227E+03
 1.9865971E+01  2.0255001E+03
 1.9889219E+01  2.0258369E+03
 1.9912468E+01  2.0269044E+03
 1.9935717E+01  2.0273713E+03
 1.9958965E+01  2.0284153E+03
 1.9982214E+01  2.0303107E+03
 2.0005463E+01  2.0328342E+03
 2.0028711E+01  2.0333431E+03
 2.0051960E+01  2.0328191E+03
 2.0075209E+01  2.0324763E+03
 2.0098457E+01  2.0329773E+03
 2.0121706E+01  2.0332517E+03
 2.0144955E+01  2.0351544E+03
 2.0168203E+01  2.0371294E+03
 2.0191452E+01  2.0386277E+03
 2.0214701E+01  2.0411631E+03
 2.0237949E+01  2.0422499E+03
 2.0261198E+01  2.0436873E+03
 2.0284447E+01  2.0456021E+03
 2.0307695E+01  2.0473512E+03
 2.0330944E+01  2.0499207E+03
 2.0354193E+01  2.0504570E+03
 2.0377441E+01  2.0523389E+03
 2.0400690E+01  2.0559695E+03
 2.0423939E+01  2.0579055E+03
 2.0447187E+01  2.0591067E+03
 2.0470436E+01  2.0627700E+03
 2.0493685E+01  2.0671404E+03
 2.0516933E+01  2.0729873E+03
 2.0540182E+01  2.0826807E+03
 2.0563431E+01  2.0939912E+03
 2.0586679E+01  2.0999937E+03
 2.0609928E+01  2.1009224E+03
 2.0633177E+01  2.0953298E+03
 2.0656425E+01  2.0880574E+03
 2.0679674E+01  2.0852529E+03
 2.0702923E+01  2.0854158E+03
 2.0726171E+01  2.0857837E+03
 2.0749420E+01  2.0867678E+03
 2.0772669E+01  2.0851904E+03
 2.0795918E+01  2.0835786E+03
 2.0819166E+01  2.0851248E+03
 2.0842415E+01  2.0872917E+03
 2.0865664E+01  2.0881626E+03
 2.0888912E+01  2.0867151E+03
 2.0912161E+01  2.0863821E+03
 2.0935410E+01  2.0867622E+03
 2.0958658E+01  2.0877302E+03
 2.0981907E+01  2.0906533E+03
 2.1005156E+01  2.0938845E+03
 2.1028404E+01  2.0959395E+03
 2.1051653E+01  2.0974431E+03
 2.1074902E+01  2.0982900E+03
 2.1098150E+01  2.1006111E+03
 2.1121397E+01  2.1045803E+03
 2.1144646E+01  2.1083254E+03
 2.1167894E+01  2.1141401E+03
 2.1191143E+01  2.1179790E+03
 2.1214392E+01  2.1192871E+03
 2.1237640E+01  2.1215725E+03
 2.1260889E+01  2.1248621E+03
 2.1284138E+01  2.1295886E+03
 2.1307386E+01  2.1351626E+03
 2.1330635E+01  2.1412925E+03
 2.1353884E+01  2.1512537E+03
 2.1377132E+01  2.1613154E+03
 2.1400381E+01  2.1755361E+03
 2.1423630E+01  2.1904460E+03
 2.1446878E+01  2.2026890E+03
 2.1470127E+01  2.2179387E+03
 2.1493376E+01  2.2357637E+03
 2.1516624E+01  2.2590566E+03
 2.1539873E+01  2.2954277E+03
 2.1563122E+01  2.3570742E+03
 2.1586370E+01  2.4413428E+03
 2.1609619E+01  2.5220452E+03
 2.1632868E+01  2.5804646E+03
 2.1656116E+01  2.6198992E+03
 2.1679365E+01  2.6519429E+03
 2.1702614E+01  2.6683416E+03
 2.1725863E+01  2.6276018E+03
 2.1749111E+01  2.5491982E+03
 2.1772360E+01  2.4747932E+03
 2.1795609E+01  2.4050242E+03
 2.1818857E+01  2.3451287E+03
 2.1842106E+01  2.2939363E+03
 2.1865355E+01  2.2552021E+03
 2.1888603E+01  2.2222944E+03
 2.1911852E+01  2.1995288E+03
 2.1935101E+01  2.1831479E+03
 2.1958349E+01  2.1732449E+03
 2.1981598E+01  2.1655781E+03
 2.2004847E+01  2.1610935E+03
 2.2028095E+01  2.1588938E+03
 2.2051344E+01  2.1577917E+03
 2.2074593E+01  2.1570332E+03
 2.2097841E+01  2.1553552E+03
 2.2121090E+01  2.1554175E+03
 2.2144339E+01  2.1555386E+03
 2.2167587E+01  2.1554282E+03
 2.2190836E+01  2.1545024E+03
 2.2214085E+01  2.1539761E+03
 2.2237333E+01  2.1546519E+03
 2.2260582E+01  2.1549463E+03
 2.2283831E+01  2.1561575E+03
 2.2307079E+01  2.1581826E+03
 2.2330328E+01  2.1609919E+03
 2.2353577E+01  2.1624143E+03
 2.2376825E+01  2.1639382E+03
 2.2400074E+01  2.1658425E+03
 2.2423323E+01  2.1691350E+03
 2.2446571E+01  2.1723503E+03
 2.2469820E+01  2.1737683E+03
 2.2493069E+01  2.1774893E+03
 2.2516317E+01  2.1827893E+03
 2.2539566E+01  2.1916694E+03
 2.2562815E+01  2.1995186E+03
 2.2586063E+01  2.2077527E+03
 2.2609312E+01  2.2243994E+03
 2.2632561E+01  2.2515542E+03
 2.2655809E+01  2.2782034E+03
 2.2679058E+01  2.2757644E+03
 2.2702307E+01  2.2481001E+03
 2.2725555E+01  2.2252302E+03
 2.2748804E+01  2.2089639E+03
 2.2772053E+01  2.1962844E+03
 2.2795301E+01  2.1882705E+03
 2.2818550E+01  2.1826895E+03
 2.2841799E+01  2.1789768E+03
 2.2865047E+01  2.1768201E+03
 2.2888296E+01  2.1774578E+03
 2.2911545E+01  2.1761113E+03
 2.2934793E+01  2.1753115E+03
 2.2958042E+01  2.1746394E+03
 2.2981291E+01  2.1750154E+03
 2.3004539E+01  2.1747253E+03
 2.3027786E+01  2.1753198E+03
 2.3051035E+01  2.1750632E+03
 2.3074284E+01  2.1762595E+03
 2.3097532E+01  2.1759187E+03
 2.3120781E+01  2.1742844E+03
 2.3144030E+01  2.1736357E+03
 2.3167278E+01  2.1718169E+03
 2.3190527E+01  2.1717334E+03
 2.3213776E+01  2.1720779E+03
 2.3237024E+01  2.1715889E+03
 2.3260273E+01  2.1717800E+03
 2.3283522E+01  2.1731414E+03
 2.3306770E+01  2.1729788E+03
 2.3330019E+01  2.1732483E+03
 2.3353268E+01  2.1747483E+03
 2.3376516E+01  2.1534087E+03
 2.3399765E+01  2.0686755E+03
 2.3423014E+01  1.9548239E+03
 2.3446262E+01  1.8728721E+03
 2.3469511E+01  1.8156665E+03
 2.3492760E+01  1.7427720E+03
 2.3516008E+01  1.7186688E+03
 2.3539257E+01  1.7219348E+03
 2.3562506E+01  1.7032543E+03
 2.3585754E+01  1.6810341E+03
 2.3609003E+01  1.6510183E+03
 2.3632252E+01  1.6149171E+03
 2.3655500E+01  1.5832416E+03
 2.3678749E+01  1.5538484E+03
 2.3701998E+01  1.5264796E+03
 2.3725246E+01  1.5001072E+03
 2.3748495E+01  1.4774048E+03
 2.3771744E+01  1.4563519E+03
 2.3794992E+01  1.4415216E+03
 2.3818241E+01  1.4288613E+03
 2.3841490E+01  1.4343999E+03
 2.3864738E+01  1.4441656E+03
 2.3887987E+01  1.4588541E+03
 2.3911236E+01  1.4693014E+03
 2.3934484E+01  1.4834204E+03
 2.3957733E+01  1.4949127E+03
 2.3980982E+01  1.5079028E+03
 2.4004230E+01  1.5191506E+03
 2.4027479E+01  1.5316881E+03
 2.4050728E+01  1.5437476E+03
 2.4073977E+01  1.5564564E+03
 2.4097225E+01  1.5656710E+03
 2.4120474E+01  1.5755350E+03
 2.4143723E+01  1.5880129E+03
 2.4166971E+01  1.5969056E+03
 2.4190220E+01  1.6106691E+03
 2.4213469E+01  1.6236322E+03
 2.4236717E+01  1.6359736E+03
 2.4259966E+01  1.6398544E+03
 2.4283215E+01  1.6530132E+03
 2.4306463E+01  1.6633461E+03
 2.4329712E+01  1.6786353E+03
 2.4352961E+01  1.6893264E+03
 2.4376209E+01  1.7047528E+03
 2.4399458E+01  1.7140626E+03
 2.4422707E+01  1.7284464E+03
 2.4445955E+01  1.7396284E+03
 2.4469204E+01  1.7498011E+03
 2.4492453E+01  1.7581024E+03
 2.4515701E+01  1.7694224E+03
 2.4538950E+01  1.7805065E+03
 2.4562199E+01  1.7921516E+03
 2.4585447E+01  1.8011716E+03
 2.4608696E+01  1.7981583E+03
 2.4631945E+01  1.7706616E+03
 2.4655193E+01  1.7232505E+03
 2.4678442E+01  1.6683918E+03
 2.4701691E+01  1.6056724E+03
 2.4724939E+01  1.5359155E+03
 2.4748188E+01  1.4669684E+03
 2.4771437E+01  1.3815139E+03
 2.4794685E+01  1.3069390E+03
 2.4817934E+01  1.1883605E+03
 2.4841183E+01  1.0599957E+03
 2.4864431E+01  1.0096072E+03
 2.4887680E+01  9.7104907E+02
 2.4910929E+01  8.6483942E+02
 2.4934177E+01  7.1422986E+02
 2.4957424E+01  5.0648303E+02
 2.4980673E+01  2.3659412E+02
 2.5003922E+01  4.2834396E+01
 2.5027170E+01  5.5192029E-01
 2.5050419E+01  0.0000000E+00
 2.5073668E+01  0.0000000E+00
 2.5096916E+01  0.0000000E+00
 2.5120165E+01  0.0000000E+00
 2.5143414E+01  0.0000000E+00
 2.5166662E+01  0.0000000E+00
 2.5189911E+01  0.0000000E+00
 2.5213160E+01  0.0000000E+00
 2.5236408E+01  0.0000000E+00
 2.5259657E+01  0.0000000E+00
 2.5282906E+01  0.0000000E+00
 2.5306154E+01  0.0000000E+00
 2.5329403E+01  0.0000000E+00
 2.5352652E+01  0.0000000E+00
 2.5375900E+01  0.0000000E+00
 2.5399149E+01  0.0000000E+00
 2.5422398E+01  0.0000000E+00
 2.5445646E+01  0.0000000E+00
 2.5468895E+01  0.0000000E+00
 2.5492144E+01  0.0000000E+00
 2.5515392E+01  0.0000000E+00
 2.5538641E+01  0.0000000E+00
 2.5561890E+01  0.0000000E+00
 2.5585138E+01  0.0000000E+00
 2.5608387E+01  0.0000000E+00
 2.5631636E+01  0.0000000E+00
 2.5654884E+01  0.0000000E+00
 2.5678133E+01  0.0000000E+00
 2.5701382E+01  0.0000000E+00
 2.5724630E+01  0.0000000E+00
 2.5747879E+01  0.0000000E+00
 2.5771128E+01  0.0000000E+00
 2.5794376E+01  0.0000000E+00
 2.5817625E+01  0.0000000E+00
 2.5840874E+01  0.0000000E+00
 2.5864122E+01  0.0000000E+00
 2.5887371E+01  0.0000000E+00
 2.5910620E+01  0.0000000E+00
 2.5933868E+01  0.0000000E+00
 2.5957117E+01  0.0000000E+00
 2.5980366E+01  0.0000000E+00
 2.6003614E+01  0.0000000E+00
 2.6026863E+01  0.0000000E+00
 2.6050112E+01  0.0000000E+00
 2.6073360E+01  0.0000000E+00
 2.6096609E+01  0.0000000E+00
 2.6119858E+01  0.0000000E+00
 2.6143106E+01  0.0000000E+00
 2.6166355E+01  0.0000000E+00
 2.6189604E+01  0.0000000E+00
 2.6212852E+01  0.0000000E+00
 2.6236101E+01  0.0000000E+00
 2.6259350E+01  0.0000000E+00
 2.6282598E+01  0.0000000E+00
 2.6305847E+01  0.0000000E+00
 2.6329096E+01  0.0000000E+00
 2.6352345E+01  0.0000000E+00
 2.6375593E+01  0.0000000E+00
 2.6398842E+01  0.0000000E+00
 2.6422091E+01  0.0000000E+00
 2.6445339E+01  0.0000000E+00
 2.6468588E+01  0.0000000E+00
 2.6491837E+01  0.0000000E+00
 2.6515085E+01  0.0000000E+00
 2.6538334E+01  0.0000000E+00
 2.6561583E+01  0.0000000E+00
 2.6584831E+01  0.0000000E+00
 2.6608080E+01  0.0000000E+00
 2.6631329E+01  0.0000000E+00
 2.6654577E+01  0.0000000E+00
 2.6677826E+01  0.0000000E+00
 2.6701075E+01  0.0000000E+00
 2.6724323E+01  0.0000000E+00
 2.6747572E+01  0.0000000E+00
 2.6770821E+01  0.0000000E+00
 2.6794069E+01  0.0000000E+00
 2.6817318E+01  0.0000000E+00
 2.6840567E+01  0.0000000E+00
 2.6863813E+01  0.0000000E+00
 2.6887062E+01  0.0000000E+00
 2.6910311E+01  0.0000000E+00
 2.6933559E+01  0.0000000E+00
 2.6956808E+01  0.0000000E+00
 2.6980057E+01  0.0000000E+00
 2.7003305E+01  0.0000000E+00
 2.7026554E+01  0.0000000E+00
 2.7049803E+01  0.0000000E+00
 2.7073051E+01  0.0000000E+00
