D:\DATA\UserData\CuiTian20190403\CWH\BA\BA_4.tif: 2-theta Scan
2-Theta Angle (Degrees)
Intensity
       1203
 1.1566844E-02  3.7222866E+01
 3.4700532E-02  3.8311947E+01
 5.7834215E-02  3.9667316E+01
 8.0967903E-02  4.0188618E+01
 1.0410159E-01  4.0406826E+01
 1.2723528E-01  3.9502911E+01
 1.5036896E-01  3.9305817E+01
 1.7350265E-01  3.8768955E+01
 1.9663633E-01  3.7198696E+01
 2.1977003E-01  3.7167221E+01
 2.4290371E-01  3.7010338E+01
 2.6603740E-01  3.7215775E+01
 2.8917107E-01  3.6913219E+01
 3.1230476E-01  3.7925987E+01
 3.3543846E-01  3.7690514E+01
 3.5857216E-01  3.7693226E+01
 3.8170582E-01  3.8053391E+01
 4.0483952E-01  3.6731766E+01
 4.2797321E-01  3.6146992E+01
 4.5110691E-01  3.6518166E+01
 4.7424057E-01  3.6580284E+01
 4.9737427E-01  3.7106308E+01
 5.2050793E-01  3.7016018E+01
 5.4364163E-01  3.6221424E+01
 5.6677532E-01  3.5903214E+01
 5.8990902E-01  3.6717602E+01
 6.1304271E-01  3.6983967E+01
 6.3617641E-01  3.6142578E+01
 6.5931004E-01  3.5920921E+01
 6.8244374E-01  3.6536636E+01
 7.0557743E-01  3.7190136E+01
 7.2871113E-01  3.7112740E+01
 7.5184482E-01  3.6930817E+01
 7.7497852E-01  3.6846355E+01
 7.9811221E-01  3.7151371E+01
 8.2124591E-01  3.7395451E+01
 8.4437954E-01  3.7048237E+01
 8.6751324E-01  3.7004547E+01
 8.9064693E-01  3.7212914E+01
 9.1378063E-01  3.7599831E+01
 9.3691432E-01  3.7703362E+01
 9.6004802E-01  3.7239460E+01
 9.8318172E-01  3.6846588E+01
 1.0063154E+00  3.7013935E+01
 1.0294491E+00  3.7323360E+01
 1.0525827E+00  3.6928619E+01
 1.0757164E+00  3.6824085E+01
 1.0988501E+00  3.6775269E+01
 1.1219838E+00  3.6531277E+01
 1.1451175E+00  3.6861099E+01
 1.1682512E+00  3.7151237E+01
 1.1913849E+00  3.7179283E+01
 1.2145185E+00  3.7455124E+01
 1.2376522E+00  3.7497009E+01
 1.2607859E+00  3.8032303E+01
 1.2839196E+00  3.8344986E+01
 1.3070533E+00  3.8540558E+01
 1.3301870E+00  3.8519718E+01
 1.3533207E+00  3.8351391E+01
 1.3764544E+00  3.8693428E+01
 1.3995880E+00  3.9203648E+01
 1.4227217E+00  3.9191315E+01
 1.4458554E+00  3.8590359E+01
 1.4689891E+00  3.8603779E+01
 1.4921228E+00  3.8808270E+01
 1.5152565E+00  3.9006798E+01
 1.5383902E+00  3.9219055E+01
 1.5615239E+00  3.9377075E+01
 1.5846575E+00  3.9359058E+01
 1.6077912E+00  3.9433075E+01
 1.6309249E+00  3.9513016E+01
 1.6540586E+00  4.0019192E+01
 1.6771923E+00  4.0263630E+01
 1.7003260E+00  4.0578243E+01
 1.7234597E+00  4.0736874E+01
 1.7465934E+00  4.0877277E+01
 1.7697270E+00  4.1544888E+01
 1.7928607E+00  4.2233311E+01
 1.8159944E+00  4.2682137E+01
 1.8391281E+00  4.3389332E+01
 1.8622618E+00  4.4667557E+01
 1.8853955E+00  4.7827206E+01
 1.9085292E+00  5.6141003E+01
 1.9316628E+00  7.1643913E+01
 1.9547966E+00  9.3744934E+01
 1.9779302E+00  1.1933076E+02
 2.0010638E+00  1.4424323E+02
 2.0241976E+00  1.6715807E+02
 2.0473313E+00  1.9146872E+02
 2.0704648E+00  2.1692859E+02
 2.0935986E+00  2.4158969E+02
 2.1167324E+00  2.6803909E+02
 2.1398661E+00  2.9965768E+02
 2.1629996E+00  3.3380161E+02
 2.1861334E+00  3.6778973E+02
 2.2092671E+00  4.0312723E+02
 2.2324007E+00  4.3165698E+02
 2.2555344E+00  4.5526572E+02
 2.2786682E+00  4.7916055E+02
 2.3018019E+00  5.0172266E+02
 2.3249354E+00  5.2100531E+02
 2.3480692E+00  5.4009283E+02
 2.3712029E+00  5.5951849E+02
 2.3943365E+00  5.7865283E+02
 2.4174702E+00  5.9694452E+02
 2.4406040E+00  6.1560931E+02
 2.4637377E+00  6.3347620E+02
 2.4868712E+00  6.5082764E+02
 2.5100050E+00  6.6857263E+02
 2.5331388E+00  6.8650238E+02
 2.5562723E+00  7.0189679E+02
 2.5794060E+00  7.1795703E+02
 2.6025398E+00  7.3387756E+02
 2.6256735E+00  7.4587921E+02
 2.6488070E+00  7.5950214E+02
 2.6719408E+00  7.7404230E+02
 2.6950746E+00  7.8674188E+02
 2.7182081E+00  8.0096033E+02
 2.7413418E+00  8.1611731E+02
 2.7644756E+00  8.3124976E+02
 2.7876093E+00  8.4308429E+02
 2.8107429E+00  8.5501837E+02
 2.8338766E+00  8.6712787E+02
 2.8570104E+00  8.7816022E+02
 2.8801439E+00  8.8998450E+02
 2.9032776E+00  9.0290607E+02
 2.9264114E+00  9.1459314E+02
 2.9495451E+00  9.2574139E+02
 2.9726787E+00  9.3668433E+02
 2.9958124E+00  9.4621417E+02
 3.0189462E+00  9.5556512E+02
 3.0420799E+00  9.6597998E+02
 3.0652134E+00  9.7598627E+02
 3.0883472E+00  9.8539661E+02
 3.1114810E+00  9.9502307E+02
 3.1346145E+00  1.0014792E+03
 3.1577482E+00  1.0115070E+03
 3.1808820E+00  1.0224305E+03
 3.2040157E+00  1.0316406E+03
 3.2271492E+00  1.0395000E+03
 3.2502830E+00  1.0469435E+03
 3.2734168E+00  1.0521208E+03
 3.2965503E+00  1.0572220E+03
 3.3196840E+00  1.0635691E+03
 3.3428178E+00  1.0727201E+03
 3.3659515E+00  1.0810443E+03
 3.3890851E+00  1.0851704E+03
 3.4122188E+00  1.0905502E+03
 3.4353526E+00  1.0950006E+03
 3.4584861E+00  1.1018123E+03
 3.4816198E+00  1.1113883E+03
 3.5047536E+00  1.1178190E+03
 3.5278873E+00  1.1247263E+03
 3.5510209E+00  1.1338657E+03
 3.5741546E+00  1.1393981E+03
 3.5972884E+00  1.1423411E+03
 3.6204219E+00  1.1465145E+03
 3.6435556E+00  1.1518434E+03
 3.6666894E+00  1.1561630E+03
 3.6898232E+00  1.1591277E+03
 3.7129567E+00  1.1649097E+03
 3.7360904E+00  1.1694803E+03
 3.7592242E+00  1.1739426E+03
 3.7823577E+00  1.1789647E+03
 3.8054914E+00  1.1836080E+03
 3.8286252E+00  1.1889380E+03
 3.8517590E+00  1.1922389E+03
 3.8748925E+00  1.1953792E+03
 3.8980262E+00  1.1982633E+03
 3.9211600E+00  1.2019067E+03
 3.9442935E+00  1.2063119E+03
 3.9674273E+00  1.2099808E+03
 3.9905610E+00  1.2124523E+03
 4.0136948E+00  1.2143623E+03
 4.0368285E+00  1.2179056E+03
 4.0599618E+00  1.2218588E+03
 4.0830956E+00  1.2266168E+03
 4.1062293E+00  1.2281563E+03
 4.1293631E+00  1.2289617E+03
 4.1524968E+00  1.2316552E+03
 4.1756306E+00  1.2349011E+03
 4.1987643E+00  1.2371230E+03
 4.2218976E+00  1.2401788E+03
 4.2450314E+00  1.2435348E+03
 4.2681651E+00  1.2457371E+03
 4.2912989E+00  1.2469099E+03
 4.3144326E+00  1.2478446E+03
 4.3375664E+00  1.2502161E+03
 4.3607001E+00  1.2526371E+03
 4.3838334E+00  1.2546641E+03
 4.4069672E+00  1.2555208E+03
 4.4301009E+00  1.2559900E+03
 4.4532347E+00  1.2585100E+03
 4.4763684E+00  1.2603629E+03
 4.4995022E+00  1.2630160E+03
 4.5226359E+00  1.2666680E+03
 4.5457692E+00  1.2681128E+03
 4.5689030E+00  1.2679906E+03
 4.5920367E+00  1.2711788E+03
 4.6151705E+00  1.2739104E+03
 4.6383042E+00  1.2726451E+03
 4.6614380E+00  1.2715820E+03
 4.6845717E+00  1.2734607E+03
 4.7077050E+00  1.2737935E+03
 4.7308388E+00  1.2723712E+03
 4.7539725E+00  1.2730963E+03
 4.7771063E+00  1.2735321E+03
 4.8002400E+00  1.2739972E+03
 4.8233738E+00  1.2763181E+03
 4.8465075E+00  1.2785485E+03
 4.8696408E+00  1.2792948E+03
 4.8927746E+00  1.2782291E+03
 4.9159083E+00  1.2793873E+03
 4.9390421E+00  1.2783398E+03
 4.9621758E+00  1.2781991E+03
 4.9853096E+00  1.2800345E+03
 5.0084434E+00  1.2798955E+03
 5.0315766E+00  1.2792457E+03
 5.0547104E+00  1.2799298E+03
 5.0778441E+00  1.2800870E+03
 5.1009779E+00  1.2790361E+03
 5.1241117E+00  1.2803672E+03
 5.1472454E+00  1.2826041E+03
 5.1703792E+00  1.2839634E+03
 5.1935124E+00  1.2838704E+03
 5.2166462E+00  1.2831073E+03
 5.2397799E+00  1.2825310E+03
 5.2629137E+00  1.2816375E+03
 5.2860475E+00  1.2802628E+03
 5.3091812E+00  1.2789340E+03
 5.3323150E+00  1.2794679E+03
 5.3554482E+00  1.2794884E+03
 5.3785820E+00  1.2790537E+03
 5.4017158E+00  1.2805964E+03
 5.4248495E+00  1.2836709E+03
 5.4479833E+00  1.2825732E+03
 5.4711170E+00  1.2803542E+03
 5.4942508E+00  1.2807587E+03
 5.5173841E+00  1.2808575E+03
 5.5405178E+00  1.2815865E+03
 5.5636516E+00  1.2819431E+03
 5.5867853E+00  1.2815162E+03
 5.6099191E+00  1.2810951E+03
 5.6330528E+00  1.2798291E+03
 5.6561866E+00  1.2792690E+03
 5.6793199E+00  1.2784556E+03
 5.7024536E+00  1.2779847E+03
 5.7255874E+00  1.2779990E+03
 5.7487211E+00  1.2788010E+03
 5.7718549E+00  1.2781584E+03
 5.7949886E+00  1.2765245E+03
 5.8181224E+00  1.2763370E+03
 5.8412561E+00  1.2763536E+03
 5.8643894E+00  1.2765892E+03
 5.8875232E+00  1.2770436E+03
 5.9106569E+00  1.2770007E+03
 5.9337907E+00  1.2764692E+03
 5.9569244E+00  1.2732731E+03
 5.9800582E+00  1.2722788E+03
 6.0031919E+00  1.2731057E+03
 6.0263252E+00  1.2722882E+03
 6.0494590E+00  1.2718101E+03
 6.0725927E+00  1.2719027E+03
 6.0957265E+00  1.2720339E+03
 6.1188602E+00  1.2731171E+03
 6.1419940E+00  1.2716057E+03
 6.1651278E+00  1.2699644E+03
 6.1882610E+00  1.2705380E+03
 6.2113948E+00  1.2723414E+03
 6.2345285E+00  1.2725319E+03
 6.2576623E+00  1.2698406E+03
 6.2807961E+00  1.2668969E+03
 6.3039298E+00  1.2664672E+03
 6.3270636E+00  1.2680857E+03
 6.3501968E+00  1.2690092E+03
 6.3733306E+00  1.2702228E+03
 6.3964643E+00  1.2690778E+03
 6.4195981E+00  1.2687461E+03
 6.4427319E+00  1.2684141E+03
 6.4658656E+00  1.2664163E+03
 6.4889994E+00  1.2653846E+03
 6.5121326E+00  1.2684094E+03
 6.5352664E+00  1.2677561E+03
 6.5584002E+00  1.2651289E+03
 6.5815339E+00  1.2640685E+03
 6.6046677E+00  1.2640642E+03
 6.6278014E+00  1.2641561E+03
 6.6509352E+00  1.2641410E+03
 6.6740685E+00  1.2614265E+03
 6.6972022E+00  1.2605198E+03
 6.7203360E+00  1.2597865E+03
 6.7434697E+00  1.2577360E+03
 6.7666035E+00  1.2560090E+03
 6.7897372E+00  1.2562426E+03
 6.8128710E+00  1.2560247E+03
 6.8360043E+00  1.2557734E+03
 6.8591380E+00  1.2549016E+03
 6.8822718E+00  1.2552614E+03
 6.9054055E+00  1.2552838E+03
 6.9285393E+00  1.2539823E+03
 6.9516730E+00  1.2526401E+03
 6.9748068E+00  1.2517574E+03
 6.9979401E+00  1.2512339E+03
 7.0210738E+00  1.2516840E+03
 7.0442076E+00  1.2517780E+03
 7.0673413E+00  1.2523018E+03
 7.0904751E+00  1.2516453E+03
 7.1136088E+00  1.2499229E+03
 7.1367426E+00  1.2509281E+03
 7.1598759E+00  1.2498750E+03
 7.1830096E+00  1.2477936E+03
 7.2061434E+00  1.2470679E+03
 7.2292771E+00  1.2474065E+03
 7.2524109E+00  1.2472458E+03
 7.2755446E+00  1.2468223E+03
 7.2986784E+00  1.2472673E+03
 7.3218117E+00  1.2477664E+03
 7.3449454E+00  1.2465663E+03
 7.3680792E+00  1.2446964E+03
 7.3912129E+00  1.2428180E+03
 7.4143467E+00  1.2440552E+03
 7.4374804E+00  1.2444191E+03
 7.4606142E+00  1.2435911E+03
 7.4837475E+00  1.2427831E+03
 7.5068812E+00  1.2428353E+03
 7.5300150E+00  1.2424570E+03
 7.5531487E+00  1.2410840E+03
 7.5762825E+00  1.2409919E+03
 7.5994163E+00  1.2415864E+03
 7.6225500E+00  1.2403519E+03
 7.6456833E+00  1.2397582E+03
 7.6688170E+00  1.2407852E+03
 7.6919508E+00  1.2408030E+03
 7.7150846E+00  1.2395376E+03
 7.7382183E+00  1.2387852E+03
 7.7613521E+00  1.2398748E+03
 7.7844858E+00  1.2399982E+03
 7.8076191E+00  1.2388459E+03
 7.8307528E+00  1.2377736E+03
 7.8538866E+00  1.2368131E+03
 7.8770204E+00  1.2371946E+03
 7.9001541E+00  1.2366868E+03
 7.9232879E+00  1.2361808E+03
 7.9464216E+00  1.2365427E+03
 7.9695549E+00  1.2369158E+03
 7.9926887E+00  1.2366741E+03
 8.0158224E+00  1.2357380E+03
 8.0389557E+00  1.2346991E+03
 8.0620899E+00  1.2342582E+03
 8.0852232E+00  1.2348400E+03
 8.1083574E+00  1.2362880E+03
 8.1314907E+00  1.2365803E+03
 8.1546249E+00  1.2353186E+03
 8.1777582E+00  1.2324930E+03
 8.2008915E+00  1.2334729E+03
 8.2240257E+00  1.2332998E+03
 8.2471590E+00  1.2327043E+03
 8.2702932E+00  1.2343143E+03
 8.2934265E+00  1.2337032E+03
 8.3165607E+00  1.2326210E+03
 8.3396940E+00  1.2317598E+03
 8.3628273E+00  1.2323439E+03
 8.3859615E+00  1.2322373E+03
 8.4090948E+00  1.2321520E+03
 8.4322290E+00  1.2330911E+03
 8.4553623E+00  1.2329608E+03
 8.4784966E+00  1.2336807E+03
 8.5016298E+00  1.2334104E+03
 8.5247631E+00  1.2333868E+03
 8.5478973E+00  1.2338893E+03
 8.5710306E+00  1.2348511E+03
 8.5941648E+00  1.2350397E+03
 8.6172981E+00  1.2350442E+03
 8.6404324E+00  1.2356086E+03
 8.6635656E+00  1.2379489E+03
 8.6866989E+00  1.2403688E+03
 8.7098331E+00  1.2414724E+03
 8.7329664E+00  1.2421095E+03
 8.7561007E+00  1.2459526E+03
 8.7792339E+00  1.2522704E+03
 8.8023682E+00  1.2569149E+03
 8.8255014E+00  1.2636128E+03
 8.8486347E+00  1.2720565E+03
 8.8717690E+00  1.2772103E+03
 8.8949022E+00  1.2758054E+03
 8.9180365E+00  1.2703755E+03
 8.9411697E+00  1.2634756E+03
 8.9643040E+00  1.2567515E+03
 8.9874372E+00  1.2513654E+03
 9.0105705E+00  1.2485031E+03
 9.0337048E+00  1.2476152E+03
 9.0568380E+00  1.2473141E+03
 9.0799723E+00  1.2452487E+03
 9.1031055E+00  1.2430304E+03
 9.1262398E+00  1.2418878E+03
 9.1493731E+00  1.2412332E+03
 9.1725063E+00  1.2425869E+03
 9.1956406E+00  1.2439712E+03
 9.2187738E+00  1.2475682E+03
 9.2419081E+00  1.2513920E+03
 9.2650414E+00  1.2494237E+03
 9.2881756E+00  1.2468597E+03
 9.3113089E+00  1.2437426E+03
 9.3344421E+00  1.2404432E+03
 9.3575764E+00  1.2398538E+03
 9.3807096E+00  1.2408326E+03
 9.4038439E+00  1.2394341E+03
 9.4269772E+00  1.2377189E+03
 9.4501114E+00  1.2363252E+03
 9.4732447E+00  1.2368378E+03
 9.4963779E+00  1.2375122E+03
 9.5195122E+00  1.2368047E+03
 9.5426455E+00  1.2384160E+03
 9.5657797E+00  1.2596627E+03
 9.5889130E+00  1.3013947E+03
 9.6120472E+00  1.3417788E+03
 9.6351805E+00  1.3612797E+03
 9.6583138E+00  1.3424833E+03
 9.6814480E+00  1.2883225E+03
 9.7045813E+00  1.2389896E+03
 9.7277155E+00  1.2358463E+03
 9.7508488E+00  1.2359276E+03
 9.7739830E+00  1.2363364E+03
 9.7971163E+00  1.2366563E+03
 9.8202496E+00  1.2372000E+03
 9.8433838E+00  1.2378474E+03
 9.8665171E+00  1.2385947E+03
 9.8896513E+00  1.2403003E+03
 9.9127846E+00  1.2416364E+03
 9.9359188E+00  1.2434146E+03
 9.9590521E+00  1.2454209E+03
 9.9821854E+00  1.2467797E+03
 1.0005320E+01  1.2497783E+03
 1.0028453E+01  1.2527782E+03
 1.0051587E+01  1.2544172E+03
 1.0074720E+01  1.2551854E+03
 1.0097855E+01  1.2566672E+03
 1.0120988E+01  1.2599113E+03
 1.0144121E+01  1.2631552E+03
 1.0167255E+01  1.2632699E+03
 1.0190389E+01  1.2620371E+03
 1.0213523E+01  1.2620845E+03
 1.0236656E+01  1.2624622E+03
 1.0259790E+01  1.2639131E+03
 1.0282924E+01  1.2643954E+03
 1.0306057E+01  1.2638733E+03
 1.0329191E+01  1.2605896E+03
 1.0352324E+01  1.2556820E+03
 1.0375459E+01  1.2513898E+03
 1.0398592E+01  1.2480839E+03
 1.0421726E+01  1.2478185E+03
 1.0444860E+01  1.2471975E+03
 1.0467993E+01  1.2470400E+03
 1.0491127E+01  1.2484484E+03
 1.0514260E+01  1.2487799E+03
 1.0537395E+01  1.2474875E+03
 1.0560528E+01  1.2484260E+03
 1.0583662E+01  1.2495305E+03
 1.0606795E+01  1.2514635E+03
 1.0629929E+01  1.2583053E+03
 1.0653063E+01  1.2750918E+03
 1.0676196E+01  1.2928334E+03
 1.0699330E+01  1.2856571E+03
 1.0722464E+01  1.2824102E+03
 1.0745598E+01  1.2943322E+03
 1.0768731E+01  1.3007526E+03
 1.0791864E+01  1.2880721E+03
 1.0814999E+01  1.2743969E+03
 1.0838132E+01  1.2675090E+03
 1.0861266E+01  1.2619805E+03
 1.0884399E+01  1.2602015E+03
 1.0907534E+01  1.2603022E+03
 1.0930667E+01  1.2612277E+03
 1.0953800E+01  1.2622267E+03
 1.0976934E+01  1.2635071E+03
 1.1000068E+01  1.2654666E+03
 1.1023202E+01  1.2674854E+03
 1.1046335E+01  1.2705687E+03
 1.1069469E+01  1.2750979E+03
 1.1092603E+01  1.2815502E+03
 1.1115736E+01  1.2893942E+03
 1.1138870E+01  1.3009548E+03
 1.1162004E+01  1.3231589E+03
 1.1185138E+01  1.3641958E+03
 1.1208271E+01  1.4404736E+03
 1.1231405E+01  1.5666304E+03
 1.1254539E+01  1.6733781E+03
 1.1277672E+01  1.7208969E+03
 1.1300806E+01  1.6766467E+03
 1.1323939E+01  1.5740062E+03
 1.1347074E+01  1.4730814E+03
 1.1370207E+01  1.4009252E+03
 1.1393341E+01  1.3561085E+03
 1.1416474E+01  1.3305953E+03
 1.1439608E+01  1.3152385E+03
 1.1462742E+01  1.3039540E+03
 1.1485875E+01  1.2955508E+03
 1.1509009E+01  1.2896625E+03
 1.1532143E+01  1.2846375E+03
 1.1555277E+01  1.2816713E+03
 1.1578410E+01  1.2781667E+03
 1.1601543E+01  1.2813557E+03
 1.1624678E+01  1.2939187E+03
 1.1647811E+01  1.2977292E+03
 1.1670945E+01  1.2992332E+03
 1.1694078E+01  1.3010660E+03
 1.1717213E+01  1.3030406E+03
 1.1740346E+01  1.3075951E+03
 1.1763480E+01  1.3140464E+03
 1.1786613E+01  1.3233867E+03
 1.1809747E+01  1.3363108E+03
 1.1832881E+01  1.3474915E+03
 1.1856014E+01  1.3571147E+03
 1.1879148E+01  1.3668419E+03
 1.1902282E+01  1.3706190E+03
 1.1925416E+01  1.3687860E+03
 1.1948549E+01  1.3619612E+03
 1.1971683E+01  1.3505621E+03
 1.1994817E+01  1.3401775E+03
 1.2017950E+01  1.3313177E+03
 1.2041084E+01  1.3240757E+03
 1.2064218E+01  1.3217437E+03
 1.2087352E+01  1.3193926E+03
 1.2110485E+01  1.3160051E+03
 1.2133618E+01  1.3150211E+03
 1.2156753E+01  1.3137437E+03
 1.2179886E+01  1.3136052E+03
 1.2203020E+01  1.3137745E+03
 1.2226153E+01  1.3145082E+03
 1.2249288E+01  1.3149417E+03
 1.2272421E+01  1.3155521E+03
 1.2295554E+01  1.3170844E+03
 1.2318688E+01  1.3187333E+03
 1.2341822E+01  1.3199384E+03
 1.2364956E+01  1.3221584E+03
 1.2388089E+01  1.3250482E+03
 1.2411223E+01  1.3255460E+03
 1.2434357E+01  1.3286489E+03
 1.2457490E+01  1.3330612E+03
 1.2480624E+01  1.3391687E+03
 1.2503757E+01  1.3457366E+03
 1.2526892E+01  1.3528701E+03
 1.2550025E+01  1.3602477E+03
 1.2573159E+01  1.3707104E+03
 1.2596292E+01  1.3824410E+03
 1.2619426E+01  1.3882257E+03
 1.2642560E+01  1.3830341E+03
 1.2665693E+01  1.3751085E+03
 1.2688828E+01  1.3705428E+03
 1.2711961E+01  1.3685146E+03
 1.2735095E+01  1.3684811E+03
 1.2758228E+01  1.3701306E+03
 1.2781362E+01  1.3716436E+03
 1.2804496E+01  1.3737836E+03
 1.2827629E+01  1.3779351E+03
 1.2850763E+01  1.3820106E+03
 1.2873897E+01  1.3881249E+03
 1.2897031E+01  1.4006179E+03
 1.2920164E+01  1.4235729E+03
 1.2943297E+01  1.4586677E+03
 1.2966432E+01  1.5010793E+03
 1.2989565E+01  1.5376447E+03
 1.3012699E+01  1.5756653E+03
 1.3035832E+01  1.6339531E+03
 1.3058967E+01  1.6845223E+03
 1.3082100E+01  1.6983790E+03
 1.3105233E+01  1.6713029E+03
 1.3128367E+01  1.6184397E+03
 1.3151501E+01  1.5061243E+03
 1.3174635E+01  1.4191595E+03
 1.3197768E+01  1.3925995E+03
 1.3220902E+01  1.3834221E+03
 1.3244036E+01  1.3756963E+03
 1.3267169E+01  1.3697833E+03
 1.3290303E+01  1.3658741E+03
 1.3313437E+01  1.3633877E+03
 1.3336571E+01  1.3635353E+03
 1.3359704E+01  1.3627781E+03
 1.3382838E+01  1.3604387E+03
 1.3405972E+01  1.3616332E+03
 1.3429105E+01  1.3631322E+03
 1.3452239E+01  1.3643683E+03
 1.3475372E+01  1.3654757E+03
 1.3498507E+01  1.3658291E+03
 1.3521640E+01  1.3675023E+03
 1.3544774E+01  1.3674443E+03
 1.3567907E+01  1.3661963E+03
 1.3591041E+01  1.3660763E+03
 1.3614175E+01  1.3661703E+03
 1.3637308E+01  1.3656056E+03
 1.3660442E+01  1.3643057E+03
 1.3683576E+01  1.3641893E+03
 1.3706710E+01  1.3652946E+03
 1.3729843E+01  1.3644186E+03
 1.3752976E+01  1.3630488E+03
 1.3776111E+01  1.3635201E+03
 1.3799244E+01  1.3639244E+03
 1.3822378E+01  1.3640187E+03
 1.3845511E+01  1.3649215E+03
 1.3868646E+01  1.3659091E+03
 1.3891779E+01  1.3668158E+03
 1.3914912E+01  1.3670990E+03
 1.3938046E+01  1.3687639E+03
 1.3961180E+01  1.3714730E+03
 1.3984314E+01  1.3714391E+03
 1.4007447E+01  1.3721890E+03
 1.4030581E+01  1.3741460E+03
 1.4053715E+01  1.3760381E+03
 1.4076848E+01  1.3781152E+03
 1.4099982E+01  1.3796060E+03
 1.4123116E+01  1.3817423E+03
 1.4146250E+01  1.3847848E+03
 1.4169383E+01  1.3860229E+03
 1.4192517E+01  1.3860167E+03
 1.4215651E+01  1.3870488E+03
 1.4238784E+01  1.3883827E+03
 1.4261918E+01  1.3892577E+03
 1.4285051E+01  1.3897642E+03
 1.4308186E+01  1.3885289E+03
 1.4331319E+01  1.3888589E+03
 1.4354453E+01  1.3889536E+03
 1.4377586E+01  1.3887390E+03
 1.4400720E+01  1.3889202E+03
 1.4423854E+01  1.3902616E+03
 1.4446987E+01  1.3994349E+03
 1.4470121E+01  1.4109458E+03
 1.4493255E+01  1.4223342E+03
 1.4516389E+01  1.4307374E+03
 1.4539522E+01  1.4352834E+03
 1.4562655E+01  1.4399064E+03
 1.4585790E+01  1.4427555E+03
 1.4608923E+01  1.4414117E+03
 1.4632057E+01  1.4408149E+03
 1.4655190E+01  1.4409001E+03
 1.4678325E+01  1.4400338E+03
 1.4701458E+01  1.4417169E+03
 1.4724591E+01  1.4429187E+03
 1.4747725E+01  1.4439944E+03
 1.4770859E+01  1.4467900E+03
 1.4793993E+01  1.4492200E+03
 1.4817126E+01  1.4518470E+03
 1.4840261E+01  1.4538672E+03
 1.4863394E+01  1.4550476E+03
 1.4886527E+01  1.4562450E+03
 1.4909661E+01  1.4583862E+03
 1.4932795E+01  1.4620581E+03
 1.4955929E+01  1.4645770E+03
 1.4979062E+01  1.4662274E+03
 1.5002196E+01  1.4689458E+03
 1.5025330E+01  1.4713575E+03
 1.5048463E+01  1.4754255E+03
 1.5071597E+01  1.4782466E+03
 1.5094730E+01  1.4785034E+03
 1.5117865E+01  1.4811855E+03
 1.5140998E+01  1.4829484E+03
 1.5164132E+01  1.4859619E+03
 1.5187265E+01  1.4891886E+03
 1.5210399E+01  1.4921256E+03
 1.5233533E+01  1.4945996E+03
 1.5256666E+01  1.4969119E+03
 1.5279800E+01  1.4990035E+03
 1.5302934E+01  1.5011469E+03
 1.5326068E+01  1.5021802E+03
 1.5349201E+01  1.5057057E+03
 1.5372334E+01  1.5086539E+03
 1.5395469E+01  1.5113300E+03
 1.5418602E+01  1.5133549E+03
 1.5441736E+01  1.5146984E+03
 1.5464869E+01  1.5154276E+03
 1.5488004E+01  1.5190258E+03
 1.5511137E+01  1.5222025E+03
 1.5534270E+01  1.5255245E+03
 1.5557405E+01  1.5264135E+03
 1.5580538E+01  1.5310135E+03
 1.5603672E+01  1.5356744E+03
 1.5626805E+01  1.5387800E+03
 1.5649940E+01  1.5427961E+03
 1.5673073E+01  1.5458542E+03
 1.5696206E+01  1.5483976E+03
 1.5719340E+01  1.5519885E+03
 1.5742474E+01  1.5551707E+03
 1.5765608E+01  1.5584563E+03
 1.5788741E+01  1.5603917E+03
 1.5811875E+01  1.5618845E+03
 1.5835009E+01  1.5648199E+03
 1.5858142E+01  1.5664048E+03
 1.5881276E+01  1.5686149E+03
 1.5904409E+01  1.5713585E+03
 1.5927544E+01  1.5728123E+03
 1.5950677E+01  1.5776376E+03
 1.5973811E+01  1.5811599E+03
 1.5996944E+01  1.5843385E+03
 1.6020079E+01  1.5853182E+03
 1.6043211E+01  1.5873414E+03
 1.6066345E+01  1.5926886E+03
 1.6089479E+01  1.5973788E+03
 1.6112614E+01  1.6060673E+03
 1.6135746E+01  1.6115579E+03
 1.6158880E+01  1.6142023E+03
 1.6182014E+01  1.6152274E+03
 1.6205147E+01  1.6108436E+03
 1.6228281E+01  1.6092759E+03
 1.6251415E+01  1.6066345E+03
 1.6274549E+01  1.6045505E+03
 1.6297682E+01  1.6041110E+03
 1.6320816E+01  1.6021597E+03
 1.6343950E+01  1.6031876E+03
 1.6367083E+01  1.6044456E+03
 1.6390217E+01  1.6059413E+03
 1.6413351E+01  1.6075841E+03
 1.6436485E+01  1.6069681E+03
 1.6459618E+01  1.6096818E+03
 1.6482752E+01  1.6128571E+03
 1.6505886E+01  1.6167965E+03
 1.6529018E+01  1.6180669E+03
 1.6552153E+01  1.6185763E+03
 1.6575287E+01  1.6217731E+03
 1.6598421E+01  1.6225906E+03
 1.6621553E+01  1.6246831E+03
 1.6644688E+01  1.6251626E+03
 1.6667822E+01  1.6290968E+03
 1.6690954E+01  1.6312910E+03
 1.6714088E+01  1.6319821E+03
 1.6737223E+01  1.6358660E+03
 1.6760357E+01  1.6381899E+03
 1.6783489E+01  1.6425427E+03
 1.6806623E+01  1.6441163E+03
 1.6829758E+01  1.6440573E+03
 1.6852890E+01  1.6462196E+03
 1.6876024E+01  1.6470065E+03
 1.6899158E+01  1.6507474E+03
 1.6922293E+01  1.6541492E+03
 1.6945425E+01  1.6580394E+03
 1.6968559E+01  1.6591101E+03
 1.6991693E+01  1.6604755E+03
 1.7014826E+01  1.6642634E+03
 1.7037960E+01  1.6656508E+03
 1.7061094E+01  1.6678818E+03
 1.7084229E+01  1.6703068E+03
 1.7107361E+01  1.6729392E+03
 1.7130495E+01  1.6752274E+03
 1.7153629E+01  1.6770476E+03
 1.7176762E+01  1.6820696E+03
 1.7199896E+01  1.6850215E+03
 1.7223030E+01  1.6871736E+03
 1.7246164E+01  1.6891727E+03
 1.7269297E+01  1.6917590E+03
 1.7292431E+01  1.6961464E+03
 1.7315565E+01  1.6984148E+03
 1.7338697E+01  1.7007994E+03
 1.7361832E+01  1.7054271E+03
 1.7384966E+01  1.7113856E+03
 1.7408100E+01  1.7147927E+03
 1.7431232E+01  1.7177771E+03
 1.7454367E+01  1.7237596E+03
 1.7477501E+01  1.7288297E+03
 1.7500633E+01  1.7380773E+03
 1.7523767E+01  1.7480405E+03
 1.7546902E+01  1.7604093E+03
 1.7570036E+01  1.7743383E+03
 1.7593168E+01  1.7873619E+03
 1.7616302E+01  1.7999535E+03
 1.7639437E+01  1.8082585E+03
 1.7662569E+01  1.8130857E+03
 1.7685703E+01  1.8141818E+03
 1.7708838E+01  1.8135895E+03
 1.7731972E+01  1.8112013E+03
 1.7755104E+01  1.8094943E+03
 1.7778238E+01  1.8085552E+03
 1.7801373E+01  1.8073599E+03
 1.7824505E+01  1.8058206E+03
 1.7847639E+01  1.8050444E+03
 1.7870773E+01  1.8067272E+03
 1.7893908E+01  1.8068207E+03
 1.7917040E+01  1.8064952E+03
 1.7940174E+01  1.8060530E+03
 1.7963308E+01  1.8067205E+03
 1.7986441E+01  1.8032438E+03
 1.8009575E+01  1.8003484E+03
 1.8032709E+01  1.7995488E+03
 1.8055843E+01  1.7997357E+03
 1.8078976E+01  1.8009323E+03
 1.8102110E+01  1.8009807E+03
 1.8125244E+01  1.8040957E+03
 1.8148376E+01  1.8038005E+03
 1.8171511E+01  1.8077581E+03
 1.8194645E+01  1.8111688E+03
 1.8217779E+01  1.8151974E+03
 1.8240911E+01  1.8220258E+03
 1.8264046E+01  1.8248579E+03
 1.8287180E+01  1.8311127E+03
 1.8310312E+01  1.8398772E+03
 1.8333447E+01  1.8597710E+03
 1.8356581E+01  1.8853015E+03
 1.8379715E+01  1.9257134E+03
 1.8402847E+01  1.9774243E+03
 1.8425982E+01  2.0234636E+03
 1.8449116E+01  2.0701394E+03
 1.8472248E+01  2.1033940E+03
 1.8495382E+01  2.1019041E+03
 1.8518517E+01  2.0392365E+03
 1.8541651E+01  1.9625164E+03
 1.8564783E+01  1.9083757E+03
 1.8587917E+01  1.8832252E+03
 1.8611052E+01  1.8697661E+03
 1.8634184E+01  1.8580424E+03
 1.8657318E+01  1.8524039E+03
 1.8680452E+01  1.8450563E+03
 1.8703587E+01  1.8428353E+03
 1.8726719E+01  1.8393921E+03
 1.8749853E+01  1.8387911E+03
 1.8772987E+01  1.8348256E+03
 1.8796120E+01  1.8344540E+03
 1.8819254E+01  1.8366868E+03
 1.8842388E+01  1.8372788E+03
 1.8865522E+01  1.8404116E+03
 1.8888655E+01  1.8391608E+03
 1.8911789E+01  1.8435157E+03
 1.8934923E+01  1.8423691E+03
 1.8958055E+01  1.8442080E+03
 1.8981190E+01  1.8418467E+03
 1.9004324E+01  1.8443525E+03
 1.9027458E+01  1.8454978E+03
 1.9050591E+01  1.8447876E+03
 1.9073725E+01  1.8434432E+03
 1.9096859E+01  1.8417277E+03
 1.9119991E+01  1.8464629E+03
 1.9143126E+01  1.8464532E+03
 1.9166260E+01  1.8489658E+03
 1.9189394E+01  1.8459473E+03
 1.9212526E+01  1.8514624E+03
 1.9235661E+01  1.8524475E+03
 1.9258795E+01  1.8529222E+03
 1.9281927E+01  1.8553341E+03
 1.9305061E+01  1.8561580E+03
 1.9328196E+01  1.8567120E+03
 1.9351330E+01  1.8574064E+03
 1.9374462E+01  1.8620806E+03
 1.9397596E+01  1.8605233E+03
 1.9420731E+01  1.8637443E+03
 1.9443863E+01  1.8656962E+03
 1.9466997E+01  1.8684005E+03
 1.9490131E+01  1.8684794E+03
 1.9513266E+01  1.8719890E+03
 1.9536398E+01  1.8748651E+03
 1.9559532E+01  1.8770714E+03
 1.9582666E+01  1.8801316E+03
 1.9605799E+01  1.8785394E+03
 1.9628933E+01  1.8837362E+03
 1.9652067E+01  1.8841648E+03
 1.9675201E+01  1.8864805E+03
 1.9698334E+01  1.8849301E+03
 1.9721468E+01  1.8882050E+03
 1.9744602E+01  1.8883630E+03
 1.9767735E+01  1.8916299E+03
 1.9790869E+01  1.8933586E+03
 1.9814003E+01  1.8963488E+03
 1.9837137E+01  1.8994451E+03
 1.9860270E+01  1.9015649E+03
 1.9883404E+01  1.9023185E+03
 1.9906538E+01  1.9042196E+03
 1.9929670E+01  1.9064335E+03
 1.9952805E+01  1.9071019E+03
 1.9975939E+01  1.9090409E+03
 1.9999073E+01  1.9107009E+03
 2.0022205E+01  1.9121326E+03
 2.0045340E+01  1.9131981E+03
 2.0068474E+01  1.9150533E+03
 2.0091606E+01  1.9172891E+03
 2.0114740E+01  1.9169691E+03
 2.0137875E+01  1.9170482E+03
 2.0161009E+01  1.9197620E+03
 2.0184141E+01  1.9201945E+03
 2.0207275E+01  1.9189954E+03
 2.0230410E+01  1.9214191E+03
 2.0253542E+01  1.9243170E+03
 2.0276676E+01  1.9258232E+03
 2.0299810E+01  1.9262659E+03
 2.0322945E+01  1.9268525E+03
 2.0346077E+01  1.9282169E+03
 2.0369211E+01  1.9304502E+03
 2.0392345E+01  1.9324080E+03
 2.0415478E+01  1.9348662E+03
 2.0438612E+01  1.9362534E+03
 2.0461746E+01  1.9390986E+03
 2.0484880E+01  1.9405327E+03
 2.0508013E+01  1.9424468E+03
 2.0531147E+01  1.9470062E+03
 2.0554281E+01  1.9521880E+03
 2.0577414E+01  1.9542896E+03
 2.0600548E+01  1.9543134E+03
 2.0623682E+01  1.9545076E+03
 2.0646816E+01  1.9544653E+03
 2.0669949E+01  1.9550972E+03
 2.0693083E+01  1.9553057E+03
 2.0716217E+01  1.9563286E+03
 2.0739349E+01  1.9586078E+03
 2.0762484E+01  1.9604210E+03
 2.0785618E+01  1.9600715E+03
 2.0808752E+01  1.9594954E+03
 2.0831884E+01  1.9605983E+03
 2.0855019E+01  1.9617189E+03
 2.0878153E+01  1.9629244E+03
 2.0901285E+01  1.9630098E+03
 2.0924419E+01  1.9635785E+03
 2.0947554E+01  1.9671569E+03
 2.0970688E+01  1.9689581E+03
 2.0993820E+01  1.9704395E+03
 2.1016954E+01  1.9735884E+03
 2.1040089E+01  1.9765439E+03
 2.1063221E+01  1.9808087E+03
 2.1086355E+01  1.9829330E+03
 2.1109489E+01  1.9847687E+03
 2.1132624E+01  1.9850344E+03
 2.1155756E+01  1.9864236E+03
 2.1178890E+01  1.9883990E+03
 2.1202024E+01  1.9908744E+03
 2.1225157E+01  1.9936722E+03
 2.1248291E+01  1.9949146E+03
 2.1271425E+01  1.9954578E+03
 2.1294559E+01  1.9983185E+03
 2.1317692E+01  2.0012922E+03
 2.1340826E+01  2.0049233E+03
 2.1363960E+01  2.0126860E+03
 2.1387093E+01  2.0185544E+03
 2.1410227E+01  2.0243390E+03
 2.1433361E+01  2.0326711E+03
 2.1456495E+01  2.0405397E+03
 2.1479628E+01  2.0475240E+03
 2.1502762E+01  2.0574119E+03
 2.1525896E+01  2.0696545E+03
 2.1549028E+01  2.0888870E+03
 2.1572163E+01  2.1121992E+03
 2.1595297E+01  2.1259414E+03
 2.1618431E+01  2.1356975E+03
 2.1641563E+01  2.1500391E+03
 2.1664698E+01  2.1654395E+03
 2.1687832E+01  2.1723647E+03
 2.1710964E+01  2.1737825E+03
 2.1734098E+01  2.1659636E+03
 2.1757233E+01  2.1473718E+03
 2.1780367E+01  2.1285596E+03
 2.1803499E+01  2.1110220E+03
 2.1826633E+01  2.0970552E+03
 2.1849768E+01  2.0819019E+03
 2.1872900E+01  2.0671694E+03
 2.1896034E+01  2.0538098E+03
 2.1919168E+01  2.0457668E+03
 2.1942303E+01  2.0401459E+03
 2.1965435E+01  2.0369238E+03
 2.1988569E+01  2.0347026E+03
 2.2011703E+01  2.0330641E+03
 2.2034836E+01  2.0328423E+03
 2.2057970E+01  2.0315629E+03
 2.2081104E+01  2.0305990E+03
 2.2104239E+01  2.0313723E+03
 2.2127371E+01  2.0319833E+03
 2.2150505E+01  2.0337457E+03
 2.2173639E+01  2.0356125E+03
 2.2196772E+01  2.0361715E+03
 2.2219906E+01  2.0356249E+03
 2.2243040E+01  2.0349094E+03
 2.2266174E+01  2.0351167E+03
 2.2289307E+01  2.0375170E+03
 2.2312441E+01  2.0406211E+03
 2.2335575E+01  2.0423625E+03
 2.2358707E+01  2.0441935E+03
 2.2381842E+01  2.0468145E+03
 2.2404976E+01  2.0462638E+03
 2.2428110E+01  2.0470645E+03
 2.2451242E+01  2.0498989E+03
 2.2474377E+01  2.0528875E+03
 2.2497511E+01  2.0562649E+03
 2.2520643E+01  2.0600200E+03
 2.2543777E+01  2.0662214E+03
 2.2566912E+01  2.0747583E+03
 2.2590046E+01  2.0866646E+03
 2.2613178E+01  2.0945066E+03
 2.2636312E+01  2.0917788E+03
 2.2659447E+01  2.0851938E+03
 2.2682579E+01  2.0770095E+03
 2.2705713E+01  2.0699995E+03
 2.2728848E+01  2.0666172E+03
 2.2751982E+01  2.0637913E+03
 2.2775114E+01  2.0598193E+03
 2.2798248E+01  2.0564602E+03
 2.2821383E+01  2.0574084E+03
 2.2844515E+01  2.0555815E+03
 2.2867649E+01  2.0551060E+03
 2.2890783E+01  2.0545640E+03
 2.2913918E+01  2.0552166E+03
 2.2937050E+01  2.0574106E+03
 2.2960184E+01  2.0577500E+03
 2.2983318E+01  2.0586506E+03
 2.3006451E+01  2.0563599E+03
 2.3029585E+01  2.0565422E+03
 2.3052719E+01  2.0563159E+03
 2.3075853E+01  2.0566248E+03
 2.3098986E+01  2.0553552E+03
 2.3122120E+01  2.0568274E+03
 2.3145254E+01  2.0574187E+03
 2.3168386E+01  2.0564087E+03
 2.3191521E+01  2.0553037E+03
 2.3214655E+01  2.0555388E+03
 2.3237789E+01  2.0569744E+03
 2.3260921E+01  2.0580239E+03
 2.3284056E+01  2.0571985E+03
 2.3307190E+01  2.0576150E+03
 2.3330322E+01  2.0589377E+03
 2.3353456E+01  2.0565232E+03
 2.3376591E+01  2.0181930E+03
 2.3399725E+01  1.9271312E+03
 2.3422857E+01  1.8276688E+03
 2.3445992E+01  1.7559465E+03
 2.3469126E+01  1.7063444E+03
 2.3492258E+01  1.6423417E+03
 2.3515392E+01  1.5794114E+03
 2.3538527E+01  1.5871462E+03
 2.3561661E+01  1.5768154E+03
 2.3584793E+01  1.5557301E+03
 2.3607927E+01  1.5300574E+03
 2.3631062E+01  1.5073705E+03
 2.3654194E+01  1.4837990E+03
 2.3677328E+01  1.4629381E+03
 2.3700462E+01  1.4405283E+03
 2.3723597E+01  1.4231821E+03
 2.3746729E+01  1.4032629E+03
 2.3769863E+01  1.3885133E+03
 2.3792997E+01  1.3748423E+03
 2.3816130E+01  1.3609370E+03
 2.3839264E+01  1.3455374E+03
 2.3862398E+01  1.3334220E+03
 2.3885532E+01  1.3254224E+03
 2.3908665E+01  1.3296594E+03
 2.3931799E+01  1.3363561E+03
 2.3954933E+01  1.3457042E+03
 2.3978065E+01  1.3537057E+03
 2.4001200E+01  1.3634097E+03
 2.4024334E+01  1.3733027E+03
 2.4047468E+01  1.3834746E+03
 2.4070601E+01  1.3904591E+03
 2.4093735E+01  1.3989373E+03
 2.4116869E+01  1.4064843E+03
 2.4140001E+01  1.4147777E+03
 2.4163136E+01  1.4236395E+03
 2.4186270E+01  1.4314860E+03
 2.4209404E+01  1.4394457E+03
 2.4232536E+01  1.4465013E+03
 2.4255671E+01  1.4558446E+03
 2.4278805E+01  1.4621624E+03
 2.4301937E+01  1.4741327E+03
 2.4325071E+01  1.4806517E+03
 2.4348206E+01  1.4929247E+03
 2.4371340E+01  1.4972206E+03
 2.4394472E+01  1.5099224E+03
 2.4417606E+01  1.5165693E+03
 2.4440741E+01  1.5267848E+03
 2.4463873E+01  1.5294163E+03
 2.4487007E+01  1.5416812E+03
 2.4510141E+01  1.5459453E+03
 2.4533276E+01  1.5580717E+03
 2.4556408E+01  1.5623890E+03
 2.4579542E+01  1.5552084E+03
 2.4602676E+01  1.5267749E+03
 2.4625809E+01  1.4924836E+03
 2.4648943E+01  1.4501724E+03
 2.4672077E+01  1.4086195E+03
 2.4695211E+01  1.3577286E+03
 2.4718344E+01  1.3088402E+03
 2.4741478E+01  1.2548086E+03
 2.4764612E+01  1.1883463E+03
 2.4787745E+01  1.1341555E+03
 2.4810879E+01  1.0459288E+03
 2.4834013E+01  9.4771820E+02
 2.4857147E+01  8.7540863E+02
 2.4880280E+01  8.5185394E+02
 2.4903414E+01  7.8452039E+02
 2.4926548E+01  6.7882355E+02
 2.4949680E+01  5.3772656E+02
 2.4972815E+01  3.5142361E+02
 2.4995949E+01  1.2596902E+02
 2.5019083E+01  9.9639883E+00
 2.5042215E+01  0.0000000E+00
 2.5065350E+01  0.0000000E+00
 2.5088484E+01  0.0000000E+00
 2.5111616E+01  0.0000000E+00
 2.5134750E+01  0.0000000E+00
 2.5157885E+01  0.0000000E+00
 2.5181019E+01  0.0000000E+00
 2.5204151E+01  0.0000000E+00
 2.5227285E+01  0.0000000E+00
 2.5250420E+01  0.0000000E+00
 2.5273552E+01  0.0000000E+00
 2.5296686E+01  0.0000000E+00
 2.5319820E+01  0.0000000E+00
 2.5342955E+01  0.0000000E+00
 2.5366087E+01  0.0000000E+00
 2.5389221E+01  0.0000000E+00
 2.5412355E+01  0.0000000E+00
 2.5435488E+01  0.0000000E+00
 2.5458622E+01  0.0000000E+00
 2.5481756E+01  0.0000000E+00
 2.5504890E+01  0.0000000E+00
 2.5528023E+01  0.0000000E+00
 2.5551157E+01  0.0000000E+00
 2.5574291E+01  0.0000000E+00
 2.5597424E+01  0.0000000E+00
 2.5620558E+01  0.0000000E+00
 2.5643692E+01  0.0000000E+00
 2.5666826E+01  0.0000000E+00
 2.5689959E+01  0.0000000E+00
 2.5713093E+01  0.0000000E+00
 2.5736227E+01  0.0000000E+00
 2.5759359E+01  0.0000000E+00
 2.5782494E+01  0.0000000E+00
 2.5805628E+01  0.0000000E+00
 2.5828762E+01  0.0000000E+00
 2.5851894E+01  0.0000000E+00
 2.5875029E+01  0.0000000E+00
 2.5898163E+01  0.0000000E+00
 2.5921295E+01  0.0000000E+00
 2.5944429E+01  0.0000000E+00
 2.5967564E+01  0.0000000E+00
 2.5990698E+01  0.0000000E+00
 2.6013830E+01  0.0000000E+00
 2.6036964E+01  0.0000000E+00
 2.6060099E+01  0.0000000E+00
 2.6083231E+01  0.0000000E+00
 2.6106365E+01  0.0000000E+00
 2.6129499E+01  0.0000000E+00
 2.6152634E+01  0.0000000E+00
 2.6175766E+01  0.0000000E+00
 2.6198900E+01  0.0000000E+00
 2.6222034E+01  0.0000000E+00
 2.6245167E+01  0.0000000E+00
 2.6268301E+01  0.0000000E+00
 2.6291435E+01  0.0000000E+00
 2.6314569E+01  0.0000000E+00
 2.6337702E+01  0.0000000E+00
 2.6360836E+01  0.0000000E+00
 2.6383970E+01  0.0000000E+00
 2.6407103E+01  0.0000000E+00
 2.6430237E+01  0.0000000E+00
 2.6453371E+01  0.0000000E+00
 2.6476505E+01  0.0000000E+00
 2.6499638E+01  0.0000000E+00
 2.6522772E+01  0.0000000E+00
 2.6545906E+01  0.0000000E+00
 2.6569038E+01  0.0000000E+00
 2.6592173E+01  0.0000000E+00
 2.6615307E+01  0.0000000E+00
 2.6638441E+01  0.0000000E+00
 2.6661573E+01  0.0000000E+00
 2.6684708E+01  0.0000000E+00
 2.6707842E+01  0.0000000E+00
 2.6730974E+01  0.0000000E+00
 2.6754108E+01  0.0000000E+00
 2.6777243E+01  0.0000000E+00
 2.6800377E+01  0.0000000E+00
 2.6823509E+01  0.0000000E+00
 2.6846643E+01  0.0000000E+00
 2.6869778E+01  0.0000000E+00
 2.6892910E+01  0.0000000E+00
 2.6916044E+01  0.0000000E+00
 2.6939178E+01  0.0000000E+00
 2.6962313E+01  0.0000000E+00
 2.6985445E+01  0.0000000E+00
 2.7008579E+01  0.0000000E+00
 2.7031713E+01  0.0000000E+00
 2.7054846E+01  0.0000000E+00
 2.7077980E+01  0.0000000E+00
 2.7101114E+01  0.0000000E+00
 2.7124249E+01  0.0000000E+00
 2.7147381E+01  0.0000000E+00
 2.7170515E+01  0.0000000E+00
 2.7193649E+01  0.0000000E+00
 2.7216782E+01  0.0000000E+00
 2.7239916E+01  0.0000000E+00
 2.7263050E+01  0.0000000E+00
 2.7286184E+01  0.0000000E+00
 2.7309317E+01  0.0000000E+00
 2.7332451E+01  0.0000000E+00
 2.7355585E+01  0.0000000E+00
 2.7378717E+01  0.0000000E+00
 2.7401852E+01  0.0000000E+00
 2.7424986E+01  0.0000000E+00
 2.7448120E+01  0.0000000E+00
 2.7471252E+01  0.0000000E+00
 2.7494387E+01  0.0000000E+00
 2.7517521E+01  0.0000000E+00
 2.7540653E+01  0.0000000E+00
 2.7563787E+01  0.0000000E+00
 2.7586922E+01  0.0000000E+00
 2.7610056E+01  0.0000000E+00
 2.7633188E+01  0.0000000E+00
 2.7656322E+01  0.0000000E+00
 2.7679457E+01  0.0000000E+00
 2.7702589E+01  0.0000000E+00
 2.7725723E+01  0.0000000E+00
 2.7748857E+01  0.0000000E+00
 2.7771992E+01  0.0000000E+00
 2.7795124E+01  0.0000000E+00
 2.7818258E+01  0.0000000E+00
