D:\DATA\UserData\CuiTian20190403\\CWH\BA\BA_7.tif: 2-theta Scan
2-Theta Angle (Degrees)
Intensity
       1481
 1.1054026E-02  4.5761723E+01
 3.3162076E-02  4.3939705E+01
 5.5270128E-02  4.3111885E+01
 7.7378176E-02  4.2133236E+01
 9.9486232E-02  4.2020412E+01
 1.2159428E-01  4.2400303E+01
 1.4370233E-01  4.1251827E+01
 1.6581038E-01  4.1395760E+01
 1.8791844E-01  4.2991909E+01
 2.1002649E-01  4.3355610E+01
 2.3213454E-01  4.2446007E+01
 2.5424260E-01  4.0849834E+01
 2.7635065E-01  4.0515873E+01
 2.9845870E-01  4.1615124E+01
 3.2056674E-01  4.1626591E+01
 3.4267479E-01  4.2115067E+01
 3.6478284E-01  4.1764938E+01
 3.8689089E-01  4.1367985E+01
 4.0899894E-01  4.1492008E+01
 4.3110698E-01  4.1595486E+01
 4.5321503E-01  4.2221294E+01
 4.7532311E-01  4.2609764E+01
 4.9743116E-01  4.2540863E+01
 5.1953918E-01  4.2801922E+01
 5.4164726E-01  4.2675758E+01
 5.6375527E-01  4.1697971E+01
 5.8586335E-01  4.2250839E+01
 6.0797143E-01  4.2765450E+01
 6.3007945E-01  4.3054821E+01
 6.5218753E-01  4.3507805E+01
 6.7429554E-01  4.3663116E+01
 6.9640362E-01  4.3392578E+01
 7.1851164E-01  4.2457893E+01
 7.4061972E-01  4.1809925E+01
 7.6272774E-01  4.2128983E+01
 7.8483582E-01  4.2748535E+01
 8.0694389E-01  4.3361134E+01
 8.2905191E-01  4.3922657E+01
 8.5115999E-01  4.4176998E+01
 8.7326801E-01  4.3877377E+01
 8.9537609E-01  4.3557880E+01
 9.1748410E-01  4.3635052E+01
 9.3959218E-01  4.4161972E+01
 9.6170020E-01  4.3904255E+01
 9.8380828E-01  4.4335384E+01
 1.0059164E+00  4.4885353E+01
 1.0280243E+00  4.5106220E+01
 1.0501324E+00  4.5075233E+01
 1.0722405E+00  4.4673195E+01
 1.0943485E+00  4.4287895E+01
 1.1164566E+00  4.3558086E+01
 1.1385646E+00  4.3507927E+01
 1.1606727E+00  4.4315422E+01
 1.1827807E+00  4.4644718E+01
 1.2048888E+00  4.4449490E+01
 1.2269968E+00  4.4439983E+01
 1.2491049E+00  4.4950050E+01
 1.2712129E+00  4.5092949E+01
 1.2933210E+00  4.5108593E+01
 1.3154291E+00  4.5076435E+01
 1.3375371E+00  4.4902790E+01
 1.3596451E+00  4.5221748E+01
 1.3817532E+00  4.5837704E+01
 1.4038613E+00  4.5904846E+01
 1.4259692E+00  4.6071369E+01
 1.4480773E+00  4.6352402E+01
 1.4701854E+00  4.6269432E+01
 1.4922935E+00  4.6517857E+01
 1.5144016E+00  4.6943089E+01
 1.5365095E+00  4.7367149E+01
 1.5586176E+00  4.7834866E+01
 1.5807257E+00  4.8458260E+01
 1.6028337E+00  4.8849499E+01
 1.6249417E+00  4.8939133E+01
 1.6470498E+00  4.8689793E+01
 1.6691579E+00  4.9317337E+01
 1.6912659E+00  5.0050999E+01
 1.7133739E+00  5.0046410E+01
 1.7354820E+00  5.0491013E+01
 1.7575901E+00  5.1676167E+01
 1.7796981E+00  5.3085903E+01
 1.8018062E+00  5.4446621E+01
 1.8239142E+00  5.6013077E+01
 1.8460222E+00  5.9108776E+01
 1.8681303E+00  6.5027267E+01
 1.8902384E+00  7.8597900E+01
 1.9123464E+00  1.0495726E+02
 1.9344544E+00  1.4374139E+02
 1.9565625E+00  1.8868379E+02
 1.9786706E+00  2.3437720E+02
 2.0007787E+00  2.7639465E+02
 2.0228868E+00  3.1641190E+02
 2.0449948E+00  3.5817200E+02
 2.0671027E+00  3.9853836E+02
 2.0892107E+00  4.4426254E+02
 2.1113188E+00  4.9732138E+02
 2.1334269E+00  5.5974982E+02
 2.1555350E+00  6.2906909E+02
 2.1776431E+00  6.9989655E+02
 2.1997511E+00  7.5860828E+02
 2.2218592E+00  7.9740906E+02
 2.2439673E+00  8.3091663E+02
 2.2660751E+00  8.6424365E+02
 2.2881832E+00  9.0010913E+02
 2.3102913E+00  9.3330554E+02
 2.3323994E+00  9.6558112E+02
 2.3545074E+00  9.9741669E+02
 2.3766155E+00  1.0289366E+03
 2.3987236E+00  1.0617365E+03
 2.4208317E+00  1.0943052E+03
 2.4429398E+00  1.1280377E+03
 2.4650476E+00  1.1560533E+03
 2.4871557E+00  1.1837625E+03
 2.5092638E+00  1.2124083E+03
 2.5313718E+00  1.2419988E+03
 2.5534799E+00  1.2683835E+03
 2.5755880E+00  1.2945962E+03
 2.5976961E+00  1.3212399E+03
 2.6198041E+00  1.3487863E+03
 2.6419122E+00  1.3721744E+03
 2.6640201E+00  1.3937126E+03
 2.6861281E+00  1.4184244E+03
 2.7082362E+00  1.4420730E+03
 2.7303443E+00  1.4648856E+03
 2.7524524E+00  1.4855371E+03
 2.7745605E+00  1.5049493E+03
 2.7966685E+00  1.5275590E+03
 2.8187766E+00  1.5496517E+03
 2.8408844E+00  1.5681440E+03
 2.8629925E+00  1.5890145E+03
 2.8851006E+00  1.6095974E+03
 2.9072087E+00  1.6307053E+03
 2.9293168E+00  1.6483726E+03
 2.9514248E+00  1.6652407E+03
 2.9735329E+00  1.6817769E+03
 2.9956410E+00  1.6979332E+03
 3.0177491E+00  1.7171147E+03
 3.0398569E+00  1.7347898E+03
 3.0619650E+00  1.7480411E+03
 3.0840731E+00  1.7616536E+03
 3.1061811E+00  1.7778696E+03
 3.1282892E+00  1.7917963E+03
 3.1503973E+00  1.8036805E+03
 3.1725054E+00  1.8171982E+03
 3.1946135E+00  1.8310541E+03
 3.2167215E+00  1.8451831E+03
 3.2388294E+00  1.8608157E+03
 3.2609375E+00  1.8738075E+03
 3.2830455E+00  1.8834098E+03
 3.3051536E+00  1.8947941E+03
 3.3272617E+00  1.9022117E+03
 3.3493698E+00  1.9152949E+03
 3.3714778E+00  1.9282841E+03
 3.3935859E+00  1.9393383E+03
 3.4156940E+00  1.9490463E+03
 3.4378018E+00  1.9591100E+03
 3.4599099E+00  1.9688944E+03
 3.4820180E+00  1.9790338E+03
 3.5041261E+00  1.9897969E+03
 3.5262341E+00  2.0003671E+03
 3.5483422E+00  2.0133173E+03
 3.5704503E+00  2.0224333E+03
 3.5925584E+00  2.0289189E+03
 3.6146665E+00  2.0393081E+03
 3.6367743E+00  2.0499629E+03
 3.6588824E+00  2.0585164E+03
 3.6809905E+00  2.0640156E+03
 3.7030985E+00  2.0723218E+03
 3.7252066E+00  2.0788918E+03
 3.7473147E+00  2.0850491E+03
 3.7694228E+00  2.0942390E+03
 3.7915308E+00  2.1002625E+03
 3.8136389E+00  2.1065696E+03
 3.8357468E+00  2.1142432E+03
 3.8578548E+00  2.1186340E+03
 3.8799629E+00  2.1245520E+03
 3.9020710E+00  2.1323628E+03
 3.9241791E+00  2.1390593E+03
 3.9462872E+00  2.1454341E+03
 3.9683952E+00  2.1526917E+03
 3.9905033E+00  2.1560757E+03
 4.0126114E+00  2.1601853E+03
 4.0347195E+00  2.1650408E+03
 4.0568275E+00  2.1702317E+03
 4.0789356E+00  2.1772610E+03
 4.1010437E+00  2.1808965E+03
 4.1231513E+00  2.1843911E+03
 4.1452594E+00  2.1879404E+03
 4.1673675E+00  2.1917859E+03
 4.1894755E+00  2.1951382E+03
 4.2115836E+00  2.1985754E+03
 4.2336917E+00  2.2043015E+03
 4.2557998E+00  2.2063967E+03
 4.2779078E+00  2.2094634E+03
 4.3000159E+00  2.2127786E+03
 4.3221240E+00  2.2174070E+03
 4.3442321E+00  2.2257305E+03
 4.3663402E+00  2.2283083E+03
 4.3884482E+00  2.2289026E+03
 4.4105563E+00  2.2335913E+03
 4.4326644E+00  2.2364573E+03
 4.4547725E+00  2.2369092E+03
 4.4768806E+00  2.2381990E+03
 4.4989886E+00  2.2439658E+03
 4.5210962E+00  2.2475002E+03
 4.5432043E+00  2.2492463E+03
 4.5653124E+00  2.2515884E+03
 4.5874205E+00  2.2523528E+03
 4.6095285E+00  2.2532751E+03
 4.6316366E+00  2.2552188E+03
 4.6537447E+00  2.2560413E+03
 4.6758528E+00  2.2562852E+03
 4.6979609E+00  2.2566064E+03
 4.7200689E+00  2.2601245E+03
 4.7421770E+00  2.2645371E+03
 4.7642851E+00  2.2677363E+03
 4.7863932E+00  2.2617908E+03
 4.8085012E+00  2.2608025E+03
 4.8306093E+00  2.2642700E+03
 4.8527174E+00  2.2651321E+03
 4.8748255E+00  2.2673003E+03
 4.8969331E+00  2.2661680E+03
 4.9190412E+00  2.2674653E+03
 4.9411492E+00  2.2695537E+03
 4.9632573E+00  2.2704827E+03
 4.9853654E+00  2.2713381E+03
 5.0074735E+00  2.2689297E+03
 5.0295815E+00  2.2701919E+03
 5.0516896E+00  2.2702742E+03
 5.0737977E+00  2.2689092E+03
 5.0959058E+00  2.2700518E+03
 5.1180139E+00  2.2717617E+03
 5.1401219E+00  2.2727578E+03
 5.1622300E+00  2.2720645E+03
 5.1843381E+00  2.2727715E+03
 5.2064462E+00  2.2736985E+03
 5.2285542E+00  2.2736636E+03
 5.2506623E+00  2.2710159E+03
 5.2727704E+00  2.2684807E+03
 5.2948780E+00  2.2685845E+03
 5.3169861E+00  2.2681868E+03
 5.3390942E+00  2.2677585E+03
 5.3612022E+00  2.2682729E+03
 5.3833103E+00  2.2710796E+03
 5.4054184E+00  2.2728735E+03
 5.4275265E+00  2.2713682E+03
 5.4496346E+00  2.2699604E+03
 5.4717426E+00  2.2709277E+03
 5.4938507E+00  2.2720686E+03
 5.5159588E+00  2.2703152E+03
 5.5380669E+00  2.2688083E+03
 5.5601749E+00  2.2694077E+03
 5.5822830E+00  2.2697051E+03
 5.6043911E+00  2.2683435E+03
 5.6264992E+00  2.2693599E+03
 5.6486073E+00  2.2676782E+03
 5.6707153E+00  2.2652871E+03
 5.6928229E+00  2.2671970E+03
 5.7149310E+00  2.2680803E+03
 5.7370391E+00  2.2671448E+03
 5.7591472E+00  2.2662229E+03
 5.7812552E+00  2.2651265E+03
 5.8033633E+00  2.2646921E+03
 5.8254714E+00  2.2630908E+03
 5.8475795E+00  2.2630173E+03
 5.8696876E+00  2.2621121E+03
 5.8917956E+00  2.2617168E+03
 5.9139037E+00  2.2592932E+03
 5.9360118E+00  2.2563096E+03
 5.9581199E+00  2.2560320E+03
 5.9802279E+00  2.2559106E+03
 6.0023360E+00  2.2545078E+03
 6.0244441E+00  2.2555969E+03
 6.0465522E+00  2.2579084E+03
 6.0686603E+00  2.2572258E+03
 6.0907679E+00  2.2554309E+03
 6.1128759E+00  2.2530657E+03
 6.1349840E+00  2.2544280E+03
 6.1570921E+00  2.2547756E+03
 6.1792002E+00  2.2533125E+03
 6.2013083E+00  2.2512322E+03
 6.2234163E+00  2.2481636E+03
 6.2455244E+00  2.2474104E+03
 6.2676325E+00  2.2489148E+03
 6.2897406E+00  2.2514714E+03
 6.3118486E+00  2.2498633E+03
 6.3339567E+00  2.2468911E+03
 6.3560648E+00  2.2487334E+03
 6.3781729E+00  2.2489944E+03
 6.4002810E+00  2.2497959E+03
 6.4223890E+00  2.2536719E+03
 6.4444971E+00  2.2542681E+03
 6.4666047E+00  2.2520520E+03
 6.4887128E+00  2.2463115E+03
 6.5108209E+00  2.2446292E+03
 6.5329289E+00  2.2421406E+03
 6.5550370E+00  2.2414624E+03
 6.5771451E+00  2.2409695E+03
 6.5992532E+00  2.2389504E+03
 6.6213613E+00  2.2379141E+03
 6.6434693E+00  2.2372180E+03
 6.6655774E+00  2.2360408E+03
 6.6876855E+00  2.2371563E+03
 6.7097936E+00  2.2370310E+03
 6.7319016E+00  2.2347185E+03
 6.7540097E+00  2.2320083E+03
 6.7761178E+00  2.2314578E+03
 6.7982259E+00  2.2336208E+03
 6.8203340E+00  2.2315876E+03
 6.8424420E+00  2.2293367E+03
 6.8645496E+00  2.2288313E+03
 6.8866577E+00  2.2282688E+03
 6.9087658E+00  2.2266719E+03
 6.9308739E+00  2.2275862E+03
 6.9529819E+00  2.2306560E+03
 6.9750900E+00  2.2311311E+03
 6.9971981E+00  2.2290781E+03
 7.0193062E+00  2.2276741E+03
 7.0414143E+00  2.2273892E+03
 7.0635223E+00  2.2240835E+03
 7.0856304E+00  2.2241921E+03
 7.1077385E+00  2.2256372E+03
 7.1298466E+00  2.2224697E+03
 7.1519547E+00  2.2189543E+03
 7.1740627E+00  2.2200439E+03
 7.1961708E+00  2.2212869E+03
 7.2182789E+00  2.2203577E+03
 7.2403870E+00  2.2177954E+03
 7.2624946E+00  2.2167473E+03
 7.2846026E+00  2.2173669E+03
 7.3067107E+00  2.2173069E+03
 7.3288188E+00  2.2159407E+03
 7.3509269E+00  2.2138503E+03
 7.3730350E+00  2.2130547E+03
 7.3951430E+00  2.2129666E+03
 7.4172511E+00  2.2133049E+03
 7.4393592E+00  2.2135017E+03
 7.4614673E+00  2.2112458E+03
 7.4835753E+00  2.2090415E+03
 7.5056834E+00  2.2074609E+03
 7.5277915E+00  2.2075903E+03
 7.5498996E+00  2.2074070E+03
 7.5720077E+00  2.2076802E+03
 7.5941157E+00  2.2103086E+03
 7.6162238E+00  2.2084077E+03
 7.6383314E+00  2.2060171E+03
 7.6604395E+00  2.2071707E+03
 7.6825476E+00  2.2063828E+03
 7.7046556E+00  2.2057568E+03
 7.7267637E+00  2.2047078E+03
 7.7488718E+00  2.2041350E+03
 7.7709799E+00  2.2036904E+03
 7.7930880E+00  2.2027986E+03
 7.8151960E+00  2.2023066E+03
 7.8373041E+00  2.2012275E+03
 7.8594122E+00  2.2019336E+03
 7.8815203E+00  2.2015693E+03
 7.9036283E+00  2.2008086E+03
 7.9257364E+00  2.2003970E+03
 7.9478445E+00  2.1990715E+03
 7.9699526E+00  2.1973906E+03
 7.9920607E+00  2.1964082E+03
 8.0141687E+00  2.1964263E+03
 8.0362768E+00  2.1952056E+03
 8.0583849E+00  2.1950254E+03
 8.0804930E+00  2.1945266E+03
 8.1026011E+00  2.1954563E+03
 8.1247091E+00  2.1960752E+03
 8.1468172E+00  2.1941187E+03
 8.1689253E+00  2.1931113E+03
 8.1910334E+00  2.1929663E+03
 8.2131414E+00  2.1932410E+03
 8.2352486E+00  2.1930464E+03
 8.2573566E+00  2.1924675E+03
 8.2794647E+00  2.1917817E+03
 8.3015728E+00  2.1936318E+03
 8.3236809E+00  2.1939575E+03
 8.3457890E+00  2.1948809E+03
 8.3678970E+00  2.1958386E+03
 8.3900051E+00  2.1976296E+03
 8.4121132E+00  2.1982444E+03
 8.4342213E+00  2.1954326E+03
 8.4563293E+00  2.1933635E+03
 8.4784374E+00  2.1947188E+03
 8.5005455E+00  2.1962224E+03
 8.5226536E+00  2.1969961E+03
 8.5447617E+00  2.1959683E+03
 8.5668697E+00  2.1980139E+03
 8.5889778E+00  2.2021189E+03
 8.6110859E+00  2.2059343E+03
 8.6331940E+00  2.2120195E+03
 8.6553020E+00  2.2208623E+03
 8.6774101E+00  2.2313254E+03
 8.6995182E+00  2.2452078E+03
 8.7216263E+00  2.2584331E+03
 8.7437344E+00  2.2665815E+03
 8.7658424E+00  2.2615396E+03
 8.7879505E+00  2.2491785E+03
 8.8100586E+00  2.2350659E+03
 8.8321667E+00  2.2233533E+03
 8.8542747E+00  2.2147959E+03
 8.8763828E+00  2.2115388E+03
 8.8984909E+00  2.2078245E+03
 8.9205990E+00  2.2037603E+03
 8.9427071E+00  2.2021172E+03
 8.9648151E+00  2.2019746E+03
 8.9869232E+00  2.2038979E+03
 9.0090303E+00  2.2082515E+03
 9.0311384E+00  2.2149487E+03
 9.0532465E+00  2.2285488E+03
 9.0753546E+00  2.2510107E+03
 9.0974627E+00  2.2692795E+03
 9.1195707E+00  2.2675120E+03
 9.1416788E+00  2.2510522E+03
 9.1637869E+00  2.2334600E+03
 9.1858950E+00  2.2163191E+03
 9.2080030E+00  2.2048147E+03
 9.2301111E+00  2.2013706E+03
 9.2522192E+00  2.1995122E+03
 9.2743273E+00  2.1985652E+03
 9.2964354E+00  2.1982368E+03
 9.3185434E+00  2.1994063E+03
 9.3406515E+00  2.1985313E+03
 9.3627596E+00  2.1988027E+03
 9.3848677E+00  2.2001355E+03
 9.4069757E+00  2.2003262E+03
 9.4290838E+00  2.2030869E+03
 9.4511919E+00  2.2286628E+03
 9.4733000E+00  2.2885190E+03
 9.4954081E+00  2.3143159E+03
 9.5175161E+00  2.3213611E+03
 9.5396242E+00  2.3142036E+03
 9.5617323E+00  2.2410405E+03
 9.5838404E+00  2.2055806E+03
 9.6059484E+00  2.2032686E+03
 9.6280565E+00  2.2063408E+03
 9.6501646E+00  2.2077646E+03
 9.6722727E+00  2.2059675E+03
 9.6943808E+00  2.2026816E+03
 9.7164888E+00  2.2017705E+03
 9.7385969E+00  2.2051482E+03
 9.7607050E+00  2.2056875E+03
 9.7828131E+00  2.2050854E+03
 9.8049202E+00  2.2096211E+03
 9.8270283E+00  2.2150088E+03
 9.8491364E+00  2.2178987E+03
 9.8712444E+00  2.2223450E+03
 9.8933525E+00  2.2279587E+03
 9.9154606E+00  2.2343521E+03
 9.9375687E+00  2.2412571E+03
 9.9596767E+00  2.2514600E+03
 9.9817848E+00  2.2622837E+03
 1.0003893E+01  2.2743066E+03
 1.0026001E+01  2.2838721E+03
 1.0048109E+01  2.2852134E+03
 1.0070217E+01  2.2784507E+03
 1.0092325E+01  2.2675461E+03
 1.0114433E+01  2.2581018E+03
 1.0136541E+01  2.2522498E+03
 1.0158649E+01  2.2508235E+03
 1.0180758E+01  2.2438694E+03
 1.0202866E+01  2.2351543E+03
 1.0224974E+01  2.2270784E+03
 1.0247082E+01  2.2224893E+03
 1.0269190E+01  2.2209836E+03
 1.0291298E+01  2.2190403E+03
 1.0313406E+01  2.2187974E+03
 1.0335514E+01  2.2195532E+03
 1.0357622E+01  2.2218677E+03
 1.0379730E+01  2.2228284E+03
 1.0401838E+01  2.2243069E+03
 1.0423946E+01  2.2263218E+03
 1.0446054E+01  2.2266489E+03
 1.0468163E+01  2.2266880E+03
 1.0490271E+01  2.2275911E+03
 1.0512379E+01  2.2301582E+03
 1.0534487E+01  2.2629534E+03
 1.0556595E+01  2.2951704E+03
 1.0578702E+01  2.2913010E+03
 1.0600810E+01  2.2670938E+03
 1.0622918E+01  2.2469341E+03
 1.0645026E+01  2.2427161E+03
 1.0667134E+01  2.2426140E+03
 1.0689242E+01  2.2443496E+03
 1.0711350E+01  2.2479373E+03
 1.0733459E+01  2.2491680E+03
 1.0755567E+01  2.2510005E+03
 1.0777675E+01  2.2531631E+03
 1.0799783E+01  2.2527690E+03
 1.0821891E+01  2.2517979E+03
 1.0843999E+01  2.2550554E+03
 1.0866107E+01  2.2614834E+03
 1.0888215E+01  2.2669526E+03
 1.0910323E+01  2.2735952E+03
 1.0932431E+01  2.2822971E+03
 1.0954539E+01  2.2938608E+03
 1.0976647E+01  2.3118494E+03
 1.0998755E+01  2.3374753E+03
 1.1020864E+01  2.4297385E+03
 1.1042972E+01  2.7185256E+03
 1.1065080E+01  3.0865125E+03
 1.1087188E+01  3.6080684E+03
 1.1109296E+01  4.0445337E+03
 1.1131404E+01  4.2229233E+03
 1.1153512E+01  4.0465842E+03
 1.1175620E+01  3.5343438E+03
 1.1197728E+01  3.1005481E+03
 1.1219836E+01  2.6477385E+03
 1.1241944E+01  2.4660613E+03
 1.1264052E+01  2.4429124E+03
 1.1286160E+01  2.4136367E+03
 1.1308269E+01  2.3840520E+03
 1.1330377E+01  2.3252397E+03
 1.1352485E+01  2.3042910E+03
 1.1374592E+01  2.2938811E+03
 1.1396700E+01  2.2871992E+03
 1.1418808E+01  2.2811692E+03
 1.1440916E+01  2.2771292E+03
 1.1463024E+01  2.2752639E+03
 1.1485132E+01  2.2753049E+03
 1.1507240E+01  2.2765891E+03
 1.1529348E+01  2.2785750E+03
 1.1551456E+01  2.2795249E+03
 1.1573565E+01  2.2820928E+03
 1.1595673E+01  2.2865791E+03
 1.1617781E+01  2.2953401E+03
 1.1639889E+01  2.3080359E+03
 1.1661997E+01  2.3251899E+03
 1.1684105E+01  2.3510959E+03
 1.1706213E+01  2.3847612E+03
 1.1728321E+01  2.4166765E+03
 1.1750429E+01  2.4502297E+03
 1.1772537E+01  2.4743459E+03
 1.1794645E+01  2.4694658E+03
 1.1816753E+01  2.4435300E+03
 1.1838861E+01  2.4087839E+03
 1.1860970E+01  2.3740835E+03
 1.1883078E+01  2.3455752E+03
 1.1905186E+01  2.3231433E+03
 1.1927294E+01  2.3059834E+03
 1.1949402E+01  2.2955420E+03
 1.1971510E+01  2.2905879E+03
 1.1993618E+01  2.2865667E+03
 1.2015726E+01  2.2835591E+03
 1.2037834E+01  2.2834351E+03
 1.2059942E+01  2.2831211E+03
 1.2082050E+01  2.2822302E+03
 1.2104158E+01  2.2839365E+03
 1.2126266E+01  2.2867839E+03
 1.2148374E+01  2.2863975E+03
 1.2170482E+01  2.2864773E+03
 1.2192590E+01  2.2878828E+03
 1.2214698E+01  2.2896479E+03
 1.2236806E+01  2.2934668E+03
 1.2258914E+01  2.2975693E+03
 1.2281022E+01  2.3000620E+03
 1.2303130E+01  2.3049009E+03
 1.2325238E+01  2.3107268E+03
 1.2347346E+01  2.3200596E+03
 1.2369454E+01  2.3335100E+03
 1.2391562E+01  2.3510977E+03
 1.2413671E+01  2.3646099E+03
 1.2435779E+01  2.3745002E+03
 1.2457887E+01  2.3782593E+03
 1.2479995E+01  2.3717688E+03
 1.2502103E+01  2.3576611E+03
 1.2524211E+01  2.3453594E+03
 1.2546319E+01  2.3397712E+03
 1.2568427E+01  2.3371250E+03
 1.2590535E+01  2.3362690E+03
 1.2612643E+01  2.3371226E+03
 1.2634751E+01  2.3386497E+03
 1.2656859E+01  2.3445935E+03
 1.2678967E+01  2.3538860E+03
 1.2701076E+01  2.3630574E+03
 1.2723184E+01  2.3736548E+03
 1.2745292E+01  2.3984016E+03
 1.2767400E+01  2.4459785E+03
 1.2789508E+01  2.5018201E+03
 1.2811616E+01  2.5284226E+03
 1.2833724E+01  2.5245723E+03
 1.2855832E+01  2.5406672E+03
 1.2877940E+01  2.5792021E+03
 1.2900048E+01  2.5892866E+03
 1.2922156E+01  2.5519146E+03
 1.2944263E+01  2.4859795E+03
 1.2966372E+01  2.4156455E+03
 1.2988480E+01  2.3715732E+03
 1.3010588E+01  2.3504966E+03
 1.3032696E+01  2.3396458E+03
 1.3054804E+01  2.3326572E+03
 1.3076912E+01  2.3291880E+03
 1.3099020E+01  2.3276863E+03
 1.3121128E+01  2.3274631E+03
 1.3143236E+01  2.3279324E+03
 1.3165344E+01  2.3268203E+03
 1.3187452E+01  2.3259844E+03
 1.3209560E+01  2.3250466E+03
 1.3231668E+01  2.3249368E+03
 1.3253777E+01  2.3262805E+03
 1.3275885E+01  2.3294648E+03
 1.3297993E+01  2.3315042E+03
 1.3320101E+01  2.3322783E+03
 1.3342209E+01  2.3349116E+03
 1.3364317E+01  2.3357739E+03
 1.3386425E+01  2.3354963E+03
 1.3408533E+01  2.3336040E+03
 1.3430641E+01  2.3334412E+03
 1.3452749E+01  2.3318237E+03
 1.3474857E+01  2.3321421E+03
 1.3496965E+01  2.3357061E+03
 1.3519073E+01  2.3365710E+03
 1.3541182E+01  2.3339294E+03
 1.3563290E+01  2.3303403E+03
 1.3585398E+01  2.3262434E+03
 1.3607506E+01  2.3259177E+03
 1.3629614E+01  2.3255605E+03
 1.3651722E+01  2.3245640E+03
 1.3673830E+01  2.3241489E+03
 1.3695938E+01  2.3270061E+03
 1.3718045E+01  2.3279158E+03
 1.3740153E+01  2.3288796E+03
 1.3762261E+01  2.3310164E+03
 1.3784369E+01  2.3351665E+03
 1.3806478E+01  2.3397251E+03
 1.3828586E+01  2.3433826E+03
 1.3850694E+01  2.3460952E+03
 1.3872802E+01  2.3496990E+03
 1.3894910E+01  2.3546079E+03
 1.3917018E+01  2.3608289E+03
 1.3939126E+01  2.3683186E+03
 1.3961234E+01  2.3766389E+03
 1.3983342E+01  2.3829731E+03
 1.4005450E+01  2.3857878E+03
 1.4027558E+01  2.3859485E+03
 1.4049666E+01  2.3840051E+03
 1.4071774E+01  2.3801133E+03
 1.4093883E+01  2.3758232E+03
 1.4115991E+01  2.3720110E+03
 1.4138099E+01  2.3674976E+03
 1.4160207E+01  2.3613711E+03
 1.4182315E+01  2.3563206E+03
 1.4204423E+01  2.3550532E+03
 1.4226531E+01  2.3555913E+03
 1.4248639E+01  2.3550554E+03
 1.4270747E+01  2.3560039E+03
 1.4292855E+01  2.3611033E+03
 1.4314963E+01  2.3752148E+03
 1.4337071E+01  2.3917881E+03
 1.4359179E+01  2.3959324E+03
 1.4381288E+01  2.3867158E+03
 1.4403396E+01  2.3757646E+03
 1.4425504E+01  2.3701523E+03
 1.4447612E+01  2.3708037E+03
 1.4469720E+01  2.3718445E+03
 1.4491827E+01  2.3665613E+03
 1.4513935E+01  2.3591604E+03
 1.4536043E+01  2.3557461E+03
 1.4558151E+01  2.3557073E+03
 1.4580259E+01  2.3548152E+03
 1.4602367E+01  2.3548933E+03
 1.4624475E+01  2.3548533E+03
 1.4646584E+01  2.3550867E+03
 1.4668692E+01  2.3570422E+03
 1.4690800E+01  2.3586111E+03
 1.4712908E+01  2.3570164E+03
 1.4735016E+01  2.3553123E+03
 1.4757124E+01  2.3563269E+03
 1.4779232E+01  2.3576143E+03
 1.4801340E+01  2.3582810E+03
 1.4823448E+01  2.3594988E+03
 1.4845556E+01  2.3611560E+03
 1.4867664E+01  2.3615168E+03
 1.4889772E+01  2.3622078E+03
 1.4911880E+01  2.3626409E+03
 1.4933989E+01  2.3625103E+03
 1.4956097E+01  2.3638535E+03
 1.4978205E+01  2.3645928E+03
 1.5000313E+01  2.3658005E+03
 1.5022421E+01  2.3657495E+03
 1.5044529E+01  2.3659797E+03
 1.5066637E+01  2.3667312E+03
 1.5088745E+01  2.3674536E+03
 1.5110853E+01  2.3667976E+03
 1.5132961E+01  2.3674468E+03
 1.5155069E+01  2.3686245E+03
 1.5177177E+01  2.3699583E+03
 1.5199286E+01  2.3715015E+03
 1.5221394E+01  2.3737969E+03
 1.5243502E+01  2.3743774E+03
 1.5265610E+01  2.3750168E+03
 1.5287717E+01  2.3772939E+03
 1.5309825E+01  2.3784050E+03
 1.5331933E+01  2.3779402E+03
 1.5354041E+01  2.3775408E+03
 1.5376149E+01  2.3778093E+03
 1.5398257E+01  2.3782048E+03
 1.5420365E+01  2.3800894E+03
 1.5442473E+01  2.3819368E+03
 1.5464581E+01  2.3821877E+03
 1.5486690E+01  2.3847959E+03
 1.5508798E+01  2.3872212E+03
 1.5530906E+01  2.3874702E+03
 1.5553014E+01  2.3894534E+03
 1.5575122E+01  2.3926187E+03
 1.5597230E+01  2.3959785E+03
 1.5619338E+01  2.4010847E+03
 1.5641446E+01  2.4107468E+03
 1.5663554E+01  2.4632058E+03
 1.5685662E+01  2.4901741E+03
 1.5707770E+01  2.4409143E+03
 1.5729878E+01  2.4094578E+03
 1.5751987E+01  2.4087104E+03
 1.5774095E+01  2.4090757E+03
 1.5796203E+01  2.4084543E+03
 1.5818311E+01  2.4096716E+03
 1.5840419E+01  2.4089709E+03
 1.5862527E+01  2.4098306E+03
 1.5884635E+01  2.4126121E+03
 1.5906743E+01  2.4173333E+03
 1.5928851E+01  2.4231404E+03
 1.5950959E+01  2.4255647E+03
 1.5973067E+01  2.4249268E+03
 1.5995175E+01  2.4237104E+03
 1.6017282E+01  2.4214067E+03
 1.6039391E+01  2.4165117E+03
 1.6061499E+01  2.4139133E+03
 1.6083607E+01  2.4090645E+03
 1.6105715E+01  2.4034839E+03
 1.6127823E+01  2.4006943E+03
 1.6149931E+01  2.3981191E+03
 1.6172039E+01  2.3962905E+03
 1.6194147E+01  2.3948674E+03
 1.6216255E+01  2.3942734E+03
 1.6238363E+01  2.3952527E+03
 1.6260471E+01  2.3950684E+03
 1.6282579E+01  2.3930247E+03
 1.6304688E+01  2.3924690E+03
 1.6326796E+01  2.3922312E+03
 1.6348904E+01  2.3920027E+03
 1.6371012E+01  2.3919761E+03
 1.6393120E+01  2.3915061E+03
 1.6415228E+01  2.3926938E+03
 1.6437336E+01  2.3921895E+03
 1.6459444E+01  2.3904822E+03
 1.6481552E+01  2.3897307E+03
 1.6503660E+01  2.3903940E+03
 1.6525768E+01  2.3902930E+03
 1.6547876E+01  2.3900696E+03
 1.6569984E+01  2.3885176E+03
 1.6592093E+01  2.3873892E+03
 1.6614201E+01  2.3880330E+03
 1.6636309E+01  2.3882258E+03
 1.6658417E+01  2.3882683E+03
 1.6680525E+01  2.3889167E+03
 1.6702633E+01  2.3875786E+03
 1.6724741E+01  2.3865688E+03
 1.6746849E+01  2.3862302E+03
 1.6768957E+01  2.3877046E+03
 1.6791065E+01  2.3875017E+03
 1.6813173E+01  2.3854961E+03
 1.6835281E+01  2.3834897E+03
 1.6857389E+01  2.3819106E+03
 1.6879498E+01  2.3797251E+03
 1.6901606E+01  2.3780347E+03
 1.6923714E+01  2.3776846E+03
 1.6945822E+01  2.3768044E+03
 1.6967930E+01  2.3767273E+03
 1.6990038E+01  2.3762905E+03
 1.7012146E+01  2.3752966E+03
 1.7034254E+01  2.3741228E+03
 1.7056362E+01  2.3732600E+03
 1.7078470E+01  2.3733137E+03
 1.7100578E+01  2.3737087E+03
 1.7122686E+01  2.3737825E+03
 1.7144794E+01  2.3739797E+03
 1.7166903E+01  2.3731426E+03
 1.7189011E+01  2.3727600E+03
 1.7211119E+01  2.3734729E+03
 1.7233225E+01  2.3745234E+03
 1.7255333E+01  2.3778684E+03
 1.7277441E+01  2.3821821E+03
 1.7299549E+01  2.3862393E+03
 1.7321657E+01  2.3922395E+03
 1.7343765E+01  2.3999565E+03
 1.7365873E+01  2.4099482E+03
 1.7387981E+01  2.4205435E+03
 1.7410089E+01  2.4273062E+03
 1.7432198E+01  2.4304893E+03
 1.7454306E+01  2.4304048E+03
 1.7476414E+01  2.4252832E+03
 1.7498522E+01  2.4179758E+03
 1.7520630E+01  2.4093860E+03
 1.7542738E+01  2.4042996E+03
 1.7564846E+01  2.4001963E+03
 1.7586954E+01  2.3917446E+03
 1.7609062E+01  2.3823921E+03
 1.7631170E+01  2.3751421E+03
 1.7653278E+01  2.3713928E+03
 1.7675386E+01  2.3671892E+03
 1.7697495E+01  2.3629961E+03
 1.7719603E+01  2.3593816E+03
 1.7741711E+01  2.3571465E+03
 1.7763819E+01  2.3554375E+03
 1.7785927E+01  2.3535835E+03
 1.7808035E+01  2.3522190E+03
 1.7830143E+01  2.3502273E+03
 1.7852251E+01  2.3477002E+03
 1.7874359E+01  2.3476199E+03
 1.7896467E+01  2.3463066E+03
 1.7918575E+01  2.3452358E+03
 1.7940683E+01  2.3454417E+03
 1.7962791E+01  2.3455452E+03
 1.7984900E+01  2.3471746E+03
 1.8007008E+01  2.3471890E+03
 1.8029116E+01  2.3477983E+03
 1.8051224E+01  2.3507603E+03
 1.8073332E+01  2.3530520E+03
 1.8095440E+01  2.3593235E+03
 1.8117548E+01  2.3720828E+03
 1.8139656E+01  2.3921516E+03
 1.8161764E+01  2.4254197E+03
 1.8183872E+01  2.4738655E+03
 1.8205980E+01  2.5274324E+03
 1.8228088E+01  2.6106597E+03
 1.8250196E+01  2.6521497E+03
 1.8272305E+01  2.6313884E+03
 1.8294413E+01  2.5655278E+03
 1.8316521E+01  2.4568831E+03
 1.8338629E+01  2.3962847E+03
 1.8360737E+01  2.3665491E+03
 1.8382845E+01  2.3443140E+03
 1.8404953E+01  2.3287334E+03
 1.8427061E+01  2.3176421E+03
 1.8449169E+01  2.3098196E+03
 1.8471277E+01  2.3036179E+03
 1.8493385E+01  2.2965330E+03
 1.8515493E+01  2.2913372E+03
 1.8537601E+01  2.2868149E+03
 1.8559710E+01  2.2836799E+03
 1.8581818E+01  2.2799453E+03
 1.8603926E+01  2.2780679E+03
 1.8626034E+01  2.2765784E+03
 1.8648142E+01  2.2743726E+03
 1.8670250E+01  2.2757041E+03
 1.8692358E+01  2.2846077E+03
 1.8714466E+01  2.2952856E+03
 1.8736574E+01  2.2968208E+03
 1.8758682E+01  2.2827285E+03
 1.8780790E+01  2.2695720E+03
 1.8802896E+01  2.2649819E+03
 1.8825005E+01  2.2632864E+03
 1.8847113E+01  2.2601904E+03
 1.8869221E+01  2.2543975E+03
 1.8891329E+01  2.2513682E+03
 1.8913437E+01  2.2512856E+03
 1.8935545E+01  2.2483101E+03
 1.8957653E+01  2.2440781E+03
 1.8979761E+01  2.2408909E+03
 1.9001869E+01  2.2390234E+03
 1.9023977E+01  2.2359612E+03
 1.9046085E+01  2.2297627E+03
 1.9068193E+01  2.2238364E+03
 1.9090302E+01  2.2179480E+03
 1.9112410E+01  2.2139807E+03
 1.9134518E+01  2.2102871E+03
 1.9156626E+01  2.2056406E+03
 1.9178734E+01  2.2011377E+03
 1.9200842E+01  2.1983499E+03
 1.9222950E+01  2.1980671E+03
 1.9245058E+01  2.1950405E+03
 1.9267166E+01  2.1919111E+03
 1.9289274E+01  2.1900996E+03
 1.9311382E+01  2.1927271E+03
 1.9333490E+01  2.1974849E+03
 1.9355598E+01  2.1989258E+03
 1.9377707E+01  2.2003042E+03
 1.9399815E+01  2.1998096E+03
 1.9421923E+01  2.1948506E+03
 1.9444031E+01  2.1860291E+03
 1.9466139E+01  2.1764385E+03
 1.9488247E+01  2.1698792E+03
 1.9510355E+01  2.1662559E+03
 1.9532463E+01  2.1637468E+03
 1.9554571E+01  2.1614958E+03
 1.9576679E+01  2.1582000E+03
 1.9598787E+01  2.1562192E+03
 1.9620895E+01  2.1542712E+03
 1.9643003E+01  2.1527322E+03
 1.9665112E+01  2.1494939E+03
 1.9687220E+01  2.1453481E+03
 1.9709328E+01  2.1439458E+03
 1.9731436E+01  2.1415566E+03
 1.9753544E+01  2.1376968E+03
 1.9775652E+01  2.1350808E+03
 1.9797760E+01  2.1317622E+03
 1.9819868E+01  2.1293650E+03
 1.9841976E+01  2.1275920E+03
 1.9864084E+01  2.1257769E+03
 1.9886192E+01  2.1243789E+03
 1.9908300E+01  2.1223054E+03
 1.9930408E+01  2.1197041E+03
 1.9952517E+01  2.1178943E+03
 1.9974625E+01  2.1169351E+03
 1.9996733E+01  2.1157827E+03
 2.0018841E+01  2.1134321E+03
 2.0040949E+01  2.1112815E+03
 2.0063057E+01  2.1107007E+03
 2.0085165E+01  2.1090364E+03
 2.0107273E+01  2.1064290E+03
 2.0129381E+01  2.1056177E+03
 2.0151489E+01  2.1054360E+03
 2.0173597E+01  2.1047122E+03
 2.0195705E+01  2.1033906E+03
 2.0217813E+01  2.1021709E+03
 2.0239922E+01  2.1006929E+03
 2.0262030E+01  2.1013440E+03
 2.0284138E+01  2.1026301E+03
 2.0306246E+01  2.1046399E+03
 2.0328354E+01  2.1087290E+03
 2.0350462E+01  2.1120208E+03
 2.0372568E+01  2.1079492E+03
 2.0394676E+01  2.1011064E+03
 2.0416784E+01  2.0977407E+03
 2.0438892E+01  2.0998115E+03
 2.0461000E+01  2.1116985E+03
 2.0483109E+01  2.1395444E+03
 2.0505217E+01  2.1636643E+03
 2.0527325E+01  2.1565913E+03
 2.0549433E+01  2.1239119E+03
 2.0571541E+01  2.0857302E+03
 2.0593649E+01  2.0752646E+03
 2.0615757E+01  2.0702112E+03
 2.0637865E+01  2.0652681E+03
 2.0659973E+01  2.0616514E+03
 2.0682081E+01  2.0593284E+03
 2.0704189E+01  2.0566531E+03
 2.0726297E+01  2.0548418E+03
 2.0748405E+01  2.0528188E+03
 2.0770514E+01  2.0522402E+03
 2.0792622E+01  2.0514678E+03
 2.0814730E+01  2.0491545E+03
 2.0836838E+01  2.0470259E+03
 2.0858946E+01  2.0461339E+03
 2.0881054E+01  2.0448964E+03
 2.0903162E+01  2.0455139E+03
 2.0925270E+01  2.0453590E+03
 2.0947378E+01  2.0445425E+03
 2.0969486E+01  2.0425668E+03
 2.0991594E+01  2.0438268E+03
 2.1013702E+01  2.0433199E+03
 2.1035810E+01  2.0429474E+03
 2.1057919E+01  2.0457288E+03
 2.1080027E+01  2.0492588E+03
 2.1102135E+01  2.0501890E+03
 2.1124243E+01  2.0528171E+03
 2.1146351E+01  2.0608823E+03
 2.1168459E+01  2.0696201E+03
 2.1190567E+01  2.0775823E+03
 2.1212675E+01  2.0895962E+03
 2.1234783E+01  2.1069780E+03
 2.1256891E+01  2.1355444E+03
 2.1278999E+01  2.1949365E+03
 2.1301107E+01  2.2362456E+03
 2.1323215E+01  2.2496985E+03
 2.1345324E+01  2.2313687E+03
 2.1367432E+01  2.2216926E+03
 2.1389540E+01  2.2375952E+03
 2.1411648E+01  2.2495820E+03
 2.1433756E+01  2.2432961E+03
 2.1455864E+01  2.2327048E+03
 2.1477972E+01  2.2120347E+03
 2.1500080E+01  2.1843115E+03
 2.1522188E+01  2.1575542E+03
 2.1544296E+01  2.1182600E+03
 2.1566404E+01  2.0746401E+03
 2.1588512E+01  2.0457179E+03
 2.1610620E+01  2.0277953E+03
 2.1632729E+01  2.0138489E+03
 2.1654837E+01  2.0042614E+03
 2.1676945E+01  1.9967548E+03
 2.1699053E+01  1.9912046E+03
 2.1721161E+01  1.9868965E+03
 2.1743269E+01  1.9831117E+03
 2.1765377E+01  1.9793311E+03
 2.1787485E+01  1.9765070E+03
 2.1809593E+01  1.9736370E+03
 2.1831701E+01  1.9708629E+03
 2.1853809E+01  1.9686343E+03
 2.1875917E+01  1.9661848E+03
 2.1898026E+01  1.9633398E+03
 2.1920134E+01  1.9630466E+03
 2.1942240E+01  1.9623208E+03
 2.1964348E+01  1.9601216E+03
 2.1986456E+01  1.9585093E+03
 2.2008564E+01  1.9571161E+03
 2.2030672E+01  1.9557859E+03
 2.2052780E+01  1.9535952E+03
 2.2074888E+01  1.9520972E+03
 2.2096996E+01  1.9498290E+03
 2.2119104E+01  1.9480677E+03
 2.2141212E+01  1.9475498E+03
 2.2163321E+01  1.9459479E+03
 2.2185429E+01  1.9446495E+03
 2.2207537E+01  1.9436620E+03
 2.2229645E+01  1.9430920E+03
 2.2251753E+01  1.9418105E+03
 2.2273861E+01  1.9414275E+03
 2.2295969E+01  1.9424794E+03
 2.2318077E+01  1.9452371E+03
 2.2340185E+01  1.9455598E+03
 2.2362293E+01  1.9468619E+03
 2.2384401E+01  1.9508536E+03
 2.2406509E+01  1.9540946E+03
 2.2428617E+01  1.9491544E+03
 2.2450726E+01  1.9436610E+03
 2.2472834E+01  1.9363376E+03
 2.2494942E+01  1.9281278E+03
 2.2517050E+01  1.9223846E+03
 2.2539158E+01  1.9183231E+03
 2.2561266E+01  1.9155377E+03
 2.2583374E+01  1.9129919E+03
 2.2605482E+01  1.9100203E+03
 2.2627590E+01  1.9064650E+03
 2.2649698E+01  1.9041006E+03
 2.2671806E+01  1.9023787E+03
 2.2693914E+01  1.9010300E+03
 2.2716022E+01  1.8974211E+03
 2.2738131E+01  1.8957837E+03
 2.2760239E+01  1.8943555E+03
 2.2782347E+01  1.8916171E+03
 2.2804455E+01  1.8896929E+03
 2.2826563E+01  1.8894229E+03
 2.2848671E+01  1.8856560E+03
 2.2870779E+01  1.8843984E+03
 2.2892887E+01  1.8830148E+03
 2.2914995E+01  1.8785721E+03
 2.2937103E+01  1.8754331E+03
 2.2959211E+01  1.8754083E+03
 2.2981319E+01  1.8709714E+03
 2.3003428E+01  1.8705371E+03
 2.3025536E+01  1.8698549E+03
 2.3047644E+01  1.8678210E+03
 2.3069752E+01  1.8668185E+03
 2.3091860E+01  1.8656340E+03
 2.3113968E+01  1.8608882E+03
 2.3136076E+01  1.8271296E+03
 2.3158184E+01  1.7223888E+03
 2.3180292E+01  1.6233606E+03
 2.3202400E+01  1.5535316E+03
 2.3224508E+01  1.5119636E+03
 2.3246616E+01  1.4726599E+03
 2.3268724E+01  1.4284834E+03
 2.3290833E+01  1.3863380E+03
 2.3312941E+01  1.3760754E+03
 2.3335049E+01  1.3556506E+03
 2.3357157E+01  1.3324060E+03
 2.3379265E+01  1.3071106E+03
 2.3401373E+01  1.2867922E+03
 2.3423481E+01  1.2634015E+03
 2.3445589E+01  1.2432692E+03
 2.3467697E+01  1.2264362E+03
 2.3489805E+01  1.2088323E+03
 2.3511911E+01  1.1945203E+03
 2.3534019E+01  1.1949822E+03
 2.3556128E+01  1.1875781E+03
 2.3578236E+01  1.1818464E+03
 2.3600344E+01  1.1735785E+03
 2.3622452E+01  1.1664686E+03
 2.3644560E+01  1.1562247E+03
 2.3666668E+01  1.1486763E+03
 2.3688776E+01  1.1391528E+03
 2.3710884E+01  1.1339156E+03
 2.3732992E+01  1.1268311E+03
 2.3755100E+01  1.1214642E+03
 2.3777208E+01  1.1169493E+03
 2.3799316E+01  1.1148400E+03
 2.3821424E+01  1.1125326E+03
 2.3843533E+01  1.1101814E+03
 2.3865641E+01  1.1098795E+03
 2.3887749E+01  1.1076145E+03
 2.3909857E+01  1.1086254E+03
 2.3931965E+01  1.1076580E+03
 2.3954073E+01  1.1073066E+03
 2.3976181E+01  1.1064751E+03
 2.3998289E+01  1.1059148E+03
 2.4020397E+01  1.1045116E+03
 2.4042505E+01  1.1038884E+03
 2.4064613E+01  1.0991188E+03
 2.4086721E+01  1.0969003E+03
 2.4108829E+01  1.0908331E+03
 2.4130938E+01  1.0836206E+03
 2.4153046E+01  1.0764951E+03
 2.4175154E+01  1.0657439E+03
 2.4197262E+01  1.0548586E+03
 2.4219370E+01  1.0431848E+03
 2.4241478E+01  1.0286787E+03
 2.4263586E+01  1.0150300E+03
 2.4285694E+01  1.0013044E+03
 2.4307802E+01  9.8463885E+02
 2.4329910E+01  9.6717664E+02
 2.4352018E+01  9.4941376E+02
 2.4374126E+01  9.2991974E+02
 2.4396235E+01  9.0829889E+02
 2.4418343E+01  8.8561725E+02
 2.4440451E+01  8.7252252E+02
 2.4462559E+01  8.5004370E+02
 2.4484667E+01  8.2249927E+02
 2.4506775E+01  7.9731573E+02
 2.4528883E+01  7.6011981E+02
 2.4550991E+01  7.3350354E+02
 2.4573099E+01  6.8482648E+02
 2.4595207E+01  6.3999115E+02
 2.4617315E+01  5.8552087E+02
 2.4639423E+01  5.4951404E+02
 2.4661531E+01  5.0711292E+02
 2.4683640E+01  4.5140396E+02
 2.4705748E+01  3.8008060E+02
 2.4727856E+01  2.8963577E+02
 2.4749964E+01  1.4496675E+02
 2.4772072E+01  2.4992653E+01
 2.4794180E+01  3.8898725E-02
 2.4816288E+01  0.0000000E+00
 2.4838396E+01  0.0000000E+00
 2.4860504E+01  0.0000000E+00
 2.4882612E+01  0.0000000E+00
 2.4904720E+01  0.0000000E+00
 2.4926828E+01  0.0000000E+00
 2.4948936E+01  0.0000000E+00
 2.4971045E+01  0.0000000E+00
 2.4993153E+01  0.0000000E+00
 2.5015261E+01  0.0000000E+00
 2.5037369E+01  0.0000000E+00
 2.5059477E+01  0.0000000E+00
 2.5081583E+01  0.0000000E+00
 2.5103691E+01  0.0000000E+00
 2.5125799E+01  0.0000000E+00
 2.5147907E+01  0.0000000E+00
 2.5170015E+01  0.0000000E+00
 2.5192123E+01  0.0000000E+00
 2.5214231E+01  0.0000000E+00
 2.5236340E+01  0.0000000E+00
 2.5258448E+01  0.0000000E+00
 2.5280556E+01  0.0000000E+00
 2.5302664E+01  0.0000000E+00
 2.5324772E+01  0.0000000E+00
 2.5346880E+01  0.0000000E+00
 2.5368988E+01  0.0000000E+00
 2.5391096E+01  0.0000000E+00
 2.5413204E+01  0.0000000E+00
 2.5435312E+01  0.0000000E+00
 2.5457420E+01  0.0000000E+00
 2.5479528E+01  0.0000000E+00
 2.5501637E+01  0.0000000E+00
 2.5523745E+01  0.0000000E+00
 2.5545853E+01  0.0000000E+00
 2.5567961E+01  0.0000000E+00
 2.5590069E+01  0.0000000E+00
 2.5612177E+01  0.0000000E+00
 2.5634285E+01  0.0000000E+00
 2.5656393E+01  0.0000000E+00
 2.5678501E+01  0.0000000E+00
 2.5700609E+01  0.0000000E+00
 2.5722717E+01  0.0000000E+00
 2.5744825E+01  0.0000000E+00
 2.5766933E+01  0.0000000E+00
 2.5789042E+01  0.0000000E+00
 2.5811150E+01  0.0000000E+00
 2.5833258E+01  0.0000000E+00
 2.5855366E+01  0.0000000E+00
 2.5877474E+01  0.0000000E+00
 2.5899582E+01  0.0000000E+00
 2.5921690E+01  0.0000000E+00
 2.5943798E+01  0.0000000E+00
 2.5965906E+01  0.0000000E+00
 2.5988014E+01  0.0000000E+00
 2.6010122E+01  0.0000000E+00
 2.6032230E+01  0.0000000E+00
 2.6054338E+01  0.0000000E+00
 2.6076447E+01  0.0000000E+00
 2.6098555E+01  0.0000000E+00
 2.6120663E+01  0.0000000E+00
 2.6142771E+01  0.0000000E+00
 2.6164879E+01  0.0000000E+00
 2.6186987E+01  0.0000000E+00
 2.6209095E+01  0.0000000E+00
 2.6231203E+01  0.0000000E+00
 2.6253311E+01  0.0000000E+00
 2.6275419E+01  0.0000000E+00
 2.6297527E+01  0.0000000E+00
 2.6319635E+01  0.0000000E+00
 2.6341743E+01  0.0000000E+00
 2.6363852E+01  0.0000000E+00
 2.6385960E+01  0.0000000E+00
 2.6408068E+01  0.0000000E+00
 2.6430176E+01  0.0000000E+00
 2.6452284E+01  0.0000000E+00
 2.6474392E+01  0.0000000E+00
 2.6496500E+01  0.0000000E+00
 2.6518608E+01  0.0000000E+00
 2.6540716E+01  0.0000000E+00
 2.6562824E+01  0.0000000E+00
 2.6584932E+01  0.0000000E+00
 2.6607040E+01  0.0000000E+00
 2.6629147E+01  0.0000000E+00
 2.6651255E+01  0.0000000E+00
 2.6673363E+01  0.0000000E+00
 2.6695471E+01  0.0000000E+00
 2.6717579E+01  0.0000000E+00
 2.6739687E+01  0.0000000E+00
 2.6761795E+01  0.0000000E+00
 2.6783903E+01  0.0000000E+00
 2.6806011E+01  0.0000000E+00
 2.6828119E+01  0.0000000E+00
 2.6850227E+01  0.0000000E+00
 2.6872335E+01  0.0000000E+00
 2.6894444E+01  0.0000000E+00
 2.6916552E+01  0.0000000E+00
 2.6938660E+01  0.0000000E+00
 2.6960768E+01  0.0000000E+00
 2.6982876E+01  0.0000000E+00
 2.7004984E+01  0.0000000E+00
 2.7027092E+01  0.0000000E+00
 2.7049200E+01  0.0000000E+00
 2.7071308E+01  0.0000000E+00
 2.7093416E+01  0.0000000E+00
 2.7115524E+01  0.0000000E+00
 2.7137632E+01  0.0000000E+00
 2.7159740E+01  0.0000000E+00
 2.7181849E+01  0.0000000E+00
 2.7203957E+01  0.0000000E+00
 2.7226065E+01  0.0000000E+00
 2.7248173E+01  0.0000000E+00
 2.7270281E+01  0.0000000E+00
 2.7292389E+01  0.0000000E+00
 2.7314497E+01  0.0000000E+00
 2.7336605E+01  0.0000000E+00
 2.7358713E+01  0.0000000E+00
 2.7380821E+01  0.0000000E+00
 2.7402929E+01  0.0000000E+00
 2.7425037E+01  0.0000000E+00
 2.7447145E+01  0.0000000E+00
 2.7469254E+01  0.0000000E+00
 2.7491362E+01  0.0000000E+00
 2.7513470E+01  0.0000000E+00
 2.7535578E+01  0.0000000E+00
 2.7557686E+01  0.0000000E+00
 2.7579794E+01  0.0000000E+00
 2.7601902E+01  0.0000000E+00
 2.7624010E+01  0.0000000E+00
 2.7646118E+01  0.0000000E+00
 2.7668226E+01  0.0000000E+00
 2.7690334E+01  0.0000000E+00
 2.7712442E+01  0.0000000E+00
 2.7734550E+01  0.0000000E+00
 2.7756659E+01  0.0000000E+00
 2.7778767E+01  0.0000000E+00
 2.7800875E+01  0.0000000E+00
 2.7822983E+01  0.0000000E+00
 2.7845091E+01  0.0000000E+00
 2.7867199E+01  0.0000000E+00
 2.7889307E+01  0.0000000E+00
 2.7911415E+01  0.0000000E+00
 2.7933523E+01  0.0000000E+00
 2.7955631E+01  0.0000000E+00
 2.7977739E+01  0.0000000E+00
 2.7999847E+01  0.0000000E+00
 2.8021955E+01  0.0000000E+00
 2.8044064E+01  0.0000000E+00
 2.8066172E+01  0.0000000E+00
 2.8088280E+01  0.0000000E+00
 2.8110388E+01  0.0000000E+00
 2.8132496E+01  0.0000000E+00
 2.8154604E+01  0.0000000E+00
 2.8176712E+01  0.0000000E+00
 2.8198818E+01  0.0000000E+00
 2.8220926E+01  0.0000000E+00
 2.8243034E+01  0.0000000E+00
 2.8265142E+01  0.0000000E+00
 2.8287251E+01  0.0000000E+00
 2.8309359E+01  0.0000000E+00
 2.8331467E+01  0.0000000E+00
 2.8353575E+01  0.0000000E+00
 2.8375683E+01  0.0000000E+00
 2.8397791E+01  0.0000000E+00
 2.8419899E+01  0.0000000E+00
 2.8442007E+01  0.0000000E+00
 2.8464115E+01  0.0000000E+00
 2.8486223E+01  0.0000000E+00
 2.8508331E+01  0.0000000E+00
 2.8530439E+01  0.0000000E+00
 2.8552547E+01  0.0000000E+00
 2.8574656E+01  0.0000000E+00
 2.8596764E+01  0.0000000E+00
 2.8618872E+01  0.0000000E+00
 2.8640980E+01  0.0000000E+00
 2.8663088E+01  0.0000000E+00
 2.8685196E+01  0.0000000E+00
 2.8707304E+01  0.0000000E+00
 2.8729412E+01  0.0000000E+00
 2.8751520E+01  0.0000000E+00
 2.8773628E+01  0.0000000E+00
 2.8795736E+01  0.0000000E+00
 2.8817844E+01  0.0000000E+00
 2.8839952E+01  0.0000000E+00
 2.8862061E+01  0.0000000E+00
 2.8884169E+01  0.0000000E+00
 2.8906277E+01  0.0000000E+00
 2.8928385E+01  0.0000000E+00
 2.8950493E+01  0.0000000E+00
 2.8972601E+01  0.0000000E+00
 2.8994709E+01  0.0000000E+00
 2.9016817E+01  0.0000000E+00
 2.9038925E+01  0.0000000E+00
 2.9061033E+01  0.0000000E+00
 2.9083141E+01  0.0000000E+00
 2.9105249E+01  0.0000000E+00
 2.9127357E+01  0.0000000E+00
 2.9149466E+01  0.0000000E+00
 2.9171574E+01  0.0000000E+00
 2.9193682E+01  0.0000000E+00
 2.9215790E+01  0.0000000E+00
 2.9237898E+01  0.0000000E+00
 2.9260006E+01  0.0000000E+00
 2.9282114E+01  0.0000000E+00
 2.9304222E+01  0.0000000E+00
 2.9326330E+01  0.0000000E+00
 2.9348438E+01  0.0000000E+00
 2.9370546E+01  0.0000000E+00
 2.9392654E+01  0.0000000E+00
 2.9414762E+01  0.0000000E+00
 2.9436871E+01  0.0000000E+00
 2.9458979E+01  0.0000000E+00
 2.9481087E+01  0.0000000E+00
 2.9503195E+01  0.0000000E+00
 2.9525303E+01  0.0000000E+00
 2.9547411E+01  0.0000000E+00
 2.9569519E+01  0.0000000E+00
 2.9591627E+01  0.0000000E+00
 2.9613735E+01  0.0000000E+00
 2.9635843E+01  0.0000000E+00
 2.9657951E+01  0.0000000E+00
 2.9680059E+01  0.0000000E+00
 2.9702168E+01  0.0000000E+00
 2.9724276E+01  0.0000000E+00
 2.9746384E+01  0.0000000E+00
 2.9768490E+01  0.0000000E+00
 2.9790598E+01  0.0000000E+00
 2.9812706E+01  0.0000000E+00
 2.9834814E+01  0.0000000E+00
 2.9856922E+01  0.0000000E+00
 2.9879030E+01  0.0000000E+00
 2.9901138E+01  0.0000000E+00
 2.9923246E+01  0.0000000E+00
 2.9945354E+01  0.0000000E+00
 2.9967463E+01  0.0000000E+00
 2.9989571E+01  0.0000000E+00
 3.0011679E+01  0.0000000E+00
 3.0033787E+01  0.0000000E+00
 3.0055895E+01  0.0000000E+00
 3.0078003E+01  0.0000000E+00
 3.0100111E+01  0.0000000E+00
 3.0122219E+01  0.0000000E+00
 3.0144327E+01  0.0000000E+00
 3.0166435E+01  0.0000000E+00
 3.0188543E+01  0.0000000E+00
 3.0210651E+01  0.0000000E+00
 3.0232759E+01  0.0000000E+00
 3.0254868E+01  0.0000000E+00
 3.0276976E+01  0.0000000E+00
 3.0299084E+01  0.0000000E+00
 3.0321192E+01  0.0000000E+00
 3.0343300E+01  0.0000000E+00
 3.0365408E+01  0.0000000E+00
 3.0387516E+01  0.0000000E+00
 3.0409624E+01  0.0000000E+00
 3.0431732E+01  0.0000000E+00
 3.0453840E+01  0.0000000E+00
 3.0475948E+01  0.0000000E+00
 3.0498056E+01  0.0000000E+00
 3.0520164E+01  0.0000000E+00
 3.0542273E+01  0.0000000E+00
 3.0564381E+01  0.0000000E+00
 3.0586489E+01  0.0000000E+00
 3.0608597E+01  0.0000000E+00
 3.0630705E+01  0.0000000E+00
 3.0652813E+01  0.0000000E+00
 3.0674921E+01  0.0000000E+00
 3.0697029E+01  0.0000000E+00
 3.0719137E+01  0.0000000E+00
 3.0741245E+01  0.0000000E+00
 3.0763353E+01  0.0000000E+00
 3.0785461E+01  0.0000000E+00
 3.0807570E+01  0.0000000E+00
 3.0829678E+01  0.0000000E+00
 3.0851786E+01  0.0000000E+00
 3.0873894E+01  0.0000000E+00
 3.0896002E+01  0.0000000E+00
 3.0918110E+01  0.0000000E+00
 3.0940218E+01  0.0000000E+00
 3.0962326E+01  0.0000000E+00
 3.0984434E+01  0.0000000E+00
 3.1006542E+01  0.0000000E+00
 3.1028650E+01  0.0000000E+00
 3.1050758E+01  0.0000000E+00
 3.1072866E+01  0.0000000E+00
 3.1094975E+01  0.0000000E+00
 3.1117083E+01  0.0000000E+00
 3.1139191E+01  0.0000000E+00
 3.1161299E+01  0.0000000E+00
 3.1183407E+01  0.0000000E+00
 3.1205515E+01  0.0000000E+00
 3.1227623E+01  0.0000000E+00
 3.1249731E+01  0.0000000E+00
 3.1271839E+01  0.0000000E+00
 3.1293947E+01  0.0000000E+00
 3.1316055E+01  0.0000000E+00
 3.1338161E+01  0.0000000E+00
 3.1360270E+01  0.0000000E+00
 3.1382378E+01  0.0000000E+00
 3.1404486E+01  0.0000000E+00
 3.1426594E+01  0.0000000E+00
 3.1448702E+01  0.0000000E+00
 3.1470810E+01  0.0000000E+00
 3.1492918E+01  0.0000000E+00
 3.1515026E+01  0.0000000E+00
 3.1537134E+01  0.0000000E+00
 3.1559242E+01  0.0000000E+00
 3.1581350E+01  0.0000000E+00
 3.1603458E+01  0.0000000E+00
 3.1625566E+01  0.0000000E+00
 3.1647675E+01  0.0000000E+00
 3.1669783E+01  0.0000000E+00
 3.1691891E+01  0.0000000E+00
 3.1713999E+01  0.0000000E+00
 3.1736107E+01  0.0000000E+00
 3.1758215E+01  0.0000000E+00
 3.1780323E+01  0.0000000E+00
 3.1802431E+01  0.0000000E+00
 3.1824539E+01  0.0000000E+00
 3.1846647E+01  0.0000000E+00
 3.1868755E+01  0.0000000E+00
 3.1890863E+01  0.0000000E+00
 3.1912971E+01  0.0000000E+00
 3.1935080E+01  0.0000000E+00
 3.1957188E+01  0.0000000E+00
 3.1979296E+01  0.0000000E+00
 3.2001404E+01  0.0000000E+00
 3.2023514E+01  0.0000000E+00
 3.2045620E+01  0.0000000E+00
 3.2067730E+01  0.0000000E+00
 3.2089836E+01  0.0000000E+00
 3.2111942E+01  0.0000000E+00
 3.2134052E+01  0.0000000E+00
 3.2156158E+01  0.0000000E+00
 3.2178268E+01  0.0000000E+00
 3.2200375E+01  0.0000000E+00
 3.2222485E+01  0.0000000E+00
 3.2244591E+01  0.0000000E+00
 3.2266701E+01  0.0000000E+00
 3.2288807E+01  0.0000000E+00
 3.2310917E+01  0.0000000E+00
 3.2333023E+01  0.0000000E+00
 3.2355133E+01  0.0000000E+00
 3.2377239E+01  0.0000000E+00
 3.2399349E+01  0.0000000E+00
 3.2421455E+01  0.0000000E+00
 3.2443565E+01  0.0000000E+00
 3.2465672E+01  0.0000000E+00
 3.2487782E+01  0.0000000E+00
 3.2509888E+01  0.0000000E+00
 3.2531998E+01  0.0000000E+00
 3.2554104E+01  0.0000000E+00
 3.2576214E+01  0.0000000E+00
 3.2598320E+01  0.0000000E+00
 3.2620430E+01  0.0000000E+00
 3.2642536E+01  0.0000000E+00
 3.2664646E+01  0.0000000E+00
 3.2686752E+01  0.0000000E+00
 3.2708862E+01  0.0000000E+00
 3.2730968E+01  0.0000000E+00
