D:\DATA\UserData\CuiTian20190403\\CWH\BA\BA_8.tif: 2-theta Scan
2-Theta Angle (Degrees)
Intensity
       1481
 1.1054026E-02  4.1529404E+01
 3.3162076E-02  4.5089256E+01
 5.5270128E-02  4.7985275E+01
 7.7378176E-02  4.7363735E+01
 9.9486232E-02  4.5760445E+01
 1.2159428E-01  4.3325481E+01
 1.4370233E-01  4.1427380E+01
 1.6581038E-01  4.2177292E+01
 1.8791844E-01  4.3346684E+01
 2.1002649E-01  4.2902454E+01
 2.3213454E-01  4.3003502E+01
 2.5424260E-01  4.4766071E+01
 2.7635065E-01  4.4972061E+01
 2.9845870E-01  4.3574833E+01
 3.2056674E-01  4.3580524E+01
 3.4267479E-01  4.2817894E+01
 3.6478284E-01  4.2147373E+01
 3.8689089E-01  4.2483738E+01
 4.0899894E-01  4.3121288E+01
 4.3110698E-01  4.3357059E+01
 4.5321503E-01  4.3570965E+01
 4.7532311E-01  4.4216408E+01
 4.9743116E-01  4.4026123E+01
 5.1953918E-01  4.3621777E+01
 5.4164726E-01  4.3556759E+01
 5.6375527E-01  4.3767361E+01
 5.8586335E-01  4.4168278E+01
 6.0797143E-01  4.3982365E+01
 6.3007945E-01  4.4015240E+01
 6.5218753E-01  4.3778000E+01
 6.7429554E-01  4.3699429E+01
 6.9640362E-01  4.4303734E+01
 7.1851164E-01  4.4620388E+01
 7.4061972E-01  4.4358089E+01
 7.6272774E-01  4.3613819E+01
 7.8483582E-01  4.4023949E+01
 8.0694389E-01  4.4593925E+01
 8.2905191E-01  4.4578732E+01
 8.5115999E-01  4.4135700E+01
 8.7326801E-01  4.3925705E+01
 8.9537609E-01  4.4459839E+01
 9.1748410E-01  4.4148659E+01
 9.3959218E-01  4.4285412E+01
 9.6170020E-01  4.4874367E+01
 9.8380828E-01  4.4488365E+01
 1.0059164E+00  4.4142014E+01
 1.0280243E+00  4.3456684E+01
 1.0501324E+00  4.2979137E+01
 1.0722405E+00  4.3476192E+01
 1.0943485E+00  4.4302021E+01
 1.1164566E+00  4.5047188E+01
 1.1385646E+00  4.5332275E+01
 1.1606727E+00  4.5360741E+01
 1.1827807E+00  4.5585640E+01
 1.2048888E+00  4.5727646E+01
 1.2269968E+00  4.6175743E+01
 1.2491049E+00  4.6323898E+01
 1.2712129E+00  4.6107693E+01
 1.2933210E+00  4.6396149E+01
 1.3154291E+00  4.6195808E+01
 1.3375371E+00  4.5993298E+01
 1.3596451E+00  4.5907589E+01
 1.3817532E+00  4.6478947E+01
 1.4038613E+00  4.7631420E+01
 1.4259692E+00  4.7883675E+01
 1.4480773E+00  4.7928116E+01
 1.4701854E+00  4.8332832E+01
 1.4922935E+00  4.8572926E+01
 1.5144016E+00  4.8423595E+01
 1.5365095E+00  4.8556107E+01
 1.5586176E+00  4.8754353E+01
 1.5807257E+00  4.9109356E+01
 1.6028337E+00  4.9844620E+01
 1.6249417E+00  5.0352978E+01
 1.6470498E+00  5.0250107E+01
 1.6691579E+00  5.0503368E+01
 1.6912659E+00  5.0991413E+01
 1.7133739E+00  5.1206902E+01
 1.7354820E+00  5.1805031E+01
 1.7575901E+00  5.2644630E+01
 1.7796981E+00  5.4047577E+01
 1.8018062E+00  5.5471272E+01
 1.8239142E+00  5.7746799E+01
 1.8460222E+00  6.0870106E+01
 1.8681303E+00  6.6900681E+01
 1.8902384E+00  8.0662971E+01
 1.9123464E+00  1.0687370E+02
 1.9344544E+00  1.4640303E+02
 1.9565625E+00  1.9196974E+02
 1.9786706E+00  2.3790222E+02
 2.0007787E+00  2.8082776E+02
 2.0228868E+00  3.2237866E+02
 2.0449948E+00  3.6462289E+02
 2.0671027E+00  4.0710074E+02
 2.0892107E+00  4.5563513E+02
 2.1113188E+00  5.1149380E+02
 2.1334269E+00  5.7601343E+02
 2.1555350E+00  6.4528143E+02
 2.1776431E+00  7.1463287E+02
 2.1997511E+00  7.6831274E+02
 2.2218592E+00  8.0727997E+02
 2.2439673E+00  8.4282214E+02
 2.2660751E+00  8.7953717E+02
 2.2881832E+00  9.1920514E+02
 2.3102913E+00  9.5446667E+02
 2.3323994E+00  9.8725842E+02
 2.3545074E+00  1.0176178E+03
 2.3766155E+00  1.0504404E+03
 2.3987236E+00  1.0864070E+03
 2.4208317E+00  1.1202385E+03
 2.4429398E+00  1.1503253E+03
 2.4650476E+00  1.1808912E+03
 2.4871557E+00  1.2130383E+03
 2.5092638E+00  1.2404703E+03
 2.5313718E+00  1.2715520E+03
 2.5534799E+00  1.3007411E+03
 2.5755880E+00  1.3266174E+03
 2.5976961E+00  1.3495917E+03
 2.6198041E+00  1.3753173E+03
 2.6419122E+00  1.4013549E+03
 2.6640201E+00  1.4247371E+03
 2.6861281E+00  1.4501975E+03
 2.7082362E+00  1.4743958E+03
 2.7303443E+00  1.4980248E+03
 2.7524524E+00  1.5193635E+03
 2.7745605E+00  1.5417491E+03
 2.7966685E+00  1.5628005E+03
 2.8187766E+00  1.5846117E+03
 2.8408844E+00  1.6039381E+03
 2.8629925E+00  1.6214939E+03
 2.8851006E+00  1.6430590E+03
 2.9072087E+00  1.6661331E+03
 2.9293168E+00  1.6837163E+03
 2.9514248E+00  1.7007456E+03
 2.9735329E+00  1.7172922E+03
 2.9956410E+00  1.7338694E+03
 3.0177491E+00  1.7525557E+03
 3.0398569E+00  1.7696019E+03
 3.0619650E+00  1.7847716E+03
 3.0840731E+00  1.8010824E+03
 3.1061811E+00  1.8167698E+03
 3.1282892E+00  1.8311113E+03
 3.1503973E+00  1.8452516E+03
 3.1725054E+00  1.8573269E+03
 3.1946135E+00  1.8714937E+03
 3.2167215E+00  1.8847886E+03
 3.2388294E+00  1.8991906E+03
 3.2609375E+00  1.9127440E+03
 3.2830455E+00  1.9231807E+03
 3.3051536E+00  1.9383672E+03
 3.3272617E+00  1.9479270E+03
 3.3493698E+00  1.9578346E+03
 3.3714778E+00  1.9705291E+03
 3.3935859E+00  1.9839744E+03
 3.4156940E+00  1.9949788E+03
 3.4378018E+00  2.0061075E+03
 3.4599099E+00  2.0154554E+03
 3.4820180E+00  2.0225162E+03
 3.5041261E+00  2.0324720E+03
 3.5262341E+00  2.0421045E+03
 3.5483422E+00  2.0512813E+03
 3.5704503E+00  2.0621406E+03
 3.5925584E+00  2.0752275E+03
 3.6146665E+00  2.0841399E+03
 3.6367743E+00  2.0922480E+03
 3.6588824E+00  2.0999478E+03
 3.6809905E+00  2.1073027E+03
 3.7030985E+00  2.1166746E+03
 3.7252066E+00  2.1243086E+03
 3.7473147E+00  2.1298193E+03
 3.7694228E+00  2.1365188E+03
 3.7915308E+00  2.1447864E+03
 3.8136389E+00  2.1554099E+03
 3.8357468E+00  2.1648621E+03
 3.8578548E+00  2.1688069E+03
 3.8799629E+00  2.1737590E+03
 3.9020710E+00  2.1818652E+03
 3.9241791E+00  2.1871350E+03
 3.9462872E+00  2.1907820E+03
 3.9683952E+00  2.1983040E+03
 3.9905033E+00  2.2069839E+03
 4.0126114E+00  2.2124978E+03
 4.0347195E+00  2.2168699E+03
 4.0568275E+00  2.2229202E+03
 4.0789356E+00  2.2288394E+03
 4.1010437E+00  2.2335034E+03
 4.1231513E+00  2.2389216E+03
 4.1452594E+00  2.2422673E+03
 4.1673675E+00  2.2446172E+03
 4.1894755E+00  2.2482129E+03
 4.2115836E+00  2.2496938E+03
 4.2336917E+00  2.2525264E+03
 4.2557998E+00  2.2550969E+03
 4.2779078E+00  2.2583196E+03
 4.3000159E+00  2.2636287E+03
 4.3221240E+00  2.2703469E+03
 4.3442321E+00  2.2735381E+03
 4.3663402E+00  2.2753096E+03
 4.3884482E+00  2.2772629E+03
 4.4105563E+00  2.2796663E+03
 4.4326644E+00  2.2815164E+03
 4.4547725E+00  2.2854189E+03
 4.4768806E+00  2.2890774E+03
 4.4989886E+00  2.2896135E+03
 4.5210962E+00  2.2911665E+03
 4.5432043E+00  2.2981328E+03
 4.5653124E+00  2.3025957E+03
 4.5874205E+00  2.3014578E+03
 4.6095285E+00  2.3025591E+03
 4.6316366E+00  2.3032859E+03
 4.6537447E+00  2.3058308E+03
 4.6758528E+00  2.3083071E+03
 4.6979609E+00  2.3095115E+03
 4.7200689E+00  2.3083210E+03
 4.7421770E+00  2.3081316E+03
 4.7642851E+00  2.3122559E+03
 4.7863932E+00  2.3149380E+03
 4.8085012E+00  2.3142859E+03
 4.8306093E+00  2.3137751E+03
 4.8527174E+00  2.3118640E+03
 4.8748255E+00  2.3097666E+03
 4.8969331E+00  2.3107231E+03
 4.9190412E+00  2.3135999E+03
 4.9411492E+00  2.3170571E+03
 4.9632573E+00  2.3195881E+03
 4.9853654E+00  2.3227527E+03
 5.0074735E+00  2.3194626E+03
 5.0295815E+00  2.3195122E+03
 5.0516896E+00  2.3205271E+03
 5.0737977E+00  2.3222783E+03
 5.0959058E+00  2.3219033E+03
 5.1180139E+00  2.3234961E+03
 5.1401219E+00  2.3249670E+03
 5.1622300E+00  2.3232532E+03
 5.1843381E+00  2.3245667E+03
 5.2064462E+00  2.3241829E+03
 5.2285542E+00  2.3231323E+03
 5.2506623E+00  2.3222310E+03
 5.2727704E+00  2.3203967E+03
 5.2948780E+00  2.3180198E+03
 5.3169861E+00  2.3193782E+03
 5.3390942E+00  2.3220906E+03
 5.3612022E+00  2.3197512E+03
 5.3833103E+00  2.3200703E+03
 5.4054184E+00  2.3224307E+03
 5.4275265E+00  2.3224058E+03
 5.4496346E+00  2.3201057E+03
 5.4717426E+00  2.3194792E+03
 5.4938507E+00  2.3202356E+03
 5.5159588E+00  2.3198301E+03
 5.5380669E+00  2.3191038E+03
 5.5601749E+00  2.3214949E+03
 5.5822830E+00  2.3214124E+03
 5.6043911E+00  2.3199204E+03
 5.6264992E+00  2.3188813E+03
 5.6486073E+00  2.3158757E+03
 5.6707153E+00  2.3141106E+03
 5.6928229E+00  2.3151343E+03
 5.7149310E+00  2.3158877E+03
 5.7370391E+00  2.3176399E+03
 5.7591472E+00  2.3163840E+03
 5.7812552E+00  2.3134209E+03
 5.8033633E+00  2.3142417E+03
 5.8254714E+00  2.3131829E+03
 5.8475795E+00  2.3128840E+03
 5.8696876E+00  2.3123127E+03
 5.8917956E+00  2.3120242E+03
 5.9139037E+00  2.3109514E+03
 5.9360118E+00  2.3110022E+03
 5.9581199E+00  2.3115679E+03
 5.9802279E+00  2.3095073E+03
 6.0023360E+00  2.3084312E+03
 6.0244441E+00  2.3085125E+03
 6.0465522E+00  2.3085410E+03
 6.0686603E+00  2.3082373E+03
 6.0907679E+00  2.3063887E+03
 6.1128759E+00  2.3071724E+03
 6.1349840E+00  2.3068386E+03
 6.1570921E+00  2.3052793E+03
 6.1792002E+00  2.3031328E+03
 6.2013083E+00  2.2981963E+03
 6.2234163E+00  2.2969607E+03
 6.2455244E+00  2.2991482E+03
 6.2676325E+00  2.2989521E+03
 6.2897406E+00  2.2995532E+03
 6.3118486E+00  2.2979966E+03
 6.3339567E+00  2.2954939E+03
 6.3560648E+00  2.2959885E+03
 6.3781729E+00  2.3000840E+03
 6.4002810E+00  2.3085774E+03
 6.4223890E+00  2.3139731E+03
 6.4444971E+00  2.3094839E+03
 6.4666047E+00  2.3016982E+03
 6.4887128E+00  2.2960964E+03
 6.5108209E+00  2.2916992E+03
 6.5329289E+00  2.2892224E+03
 6.5550370E+00  2.2907817E+03
 6.5771451E+00  2.2904331E+03
 6.5992532E+00  2.2888838E+03
 6.6213613E+00  2.2884626E+03
 6.6434693E+00  2.2887156E+03
 6.6655774E+00  2.2896992E+03
 6.6876855E+00  2.2901638E+03
 6.7097936E+00  2.2886411E+03
 6.7319016E+00  2.2873892E+03
 6.7540097E+00  2.2857783E+03
 6.7761178E+00  2.2834158E+03
 6.7982259E+00  2.2801863E+03
 6.8203340E+00  2.2776067E+03
 6.8424420E+00  2.2775444E+03
 6.8645496E+00  2.2787053E+03
 6.8866577E+00  2.2793984E+03
 6.9087658E+00  2.2795640E+03
 6.9308739E+00  2.2770771E+03
 6.9529819E+00  2.2755166E+03
 6.9750900E+00  2.2786018E+03
 6.9971981E+00  2.2792485E+03
 7.0193062E+00  2.2773442E+03
 7.0414143E+00  2.2765652E+03
 7.0635223E+00  2.2755281E+03
 7.0856304E+00  2.2731309E+03
 7.1077385E+00  2.2717432E+03
 7.1298466E+00  2.2696211E+03
 7.1519547E+00  2.2681165E+03
 7.1740627E+00  2.2687778E+03
 7.1961708E+00  2.2701672E+03
 7.2182789E+00  2.2665718E+03
 7.2403870E+00  2.2639104E+03
 7.2624946E+00  2.2652654E+03
 7.2846026E+00  2.2647388E+03
 7.3067107E+00  2.2639485E+03
 7.3288188E+00  2.2622102E+03
 7.3509269E+00  2.2613782E+03
 7.3730350E+00  2.2627988E+03
 7.3951430E+00  2.2635840E+03
 7.4172511E+00  2.2599946E+03
 7.4393592E+00  2.2580747E+03
 7.4614673E+00  2.2567637E+03
 7.4835753E+00  2.2578496E+03
 7.5056834E+00  2.2578823E+03
 7.5277915E+00  2.2566670E+03
 7.5498996E+00  2.2575076E+03
 7.5720077E+00  2.2569954E+03
 7.5941157E+00  2.2544985E+03
 7.6162238E+00  2.2533076E+03
 7.6383314E+00  2.2534707E+03
 7.6604395E+00  2.2527251E+03
 7.6825476E+00  2.2515244E+03
 7.7046556E+00  2.2495669E+03
 7.7267637E+00  2.2493965E+03
 7.7488718E+00  2.2500264E+03
 7.7709799E+00  2.2505642E+03
 7.7930880E+00  2.2488669E+03
 7.8151960E+00  2.2496887E+03
 7.8373041E+00  2.2506399E+03
 7.8594122E+00  2.2484651E+03
 7.8815203E+00  2.2473735E+03
 7.9036283E+00  2.2491555E+03
 7.9257364E+00  2.2504128E+03
 7.9478445E+00  2.2498491E+03
 7.9699526E+00  2.2476858E+03
 7.9920607E+00  2.2457708E+03
 8.0141687E+00  2.2467507E+03
 8.0362768E+00  2.2474324E+03
 8.0583849E+00  2.2468174E+03
 8.0804930E+00  2.2460356E+03
 8.1026011E+00  2.2464150E+03
 8.1247091E+00  2.2454878E+03
 8.1468172E+00  2.2437837E+03
 8.1689253E+00  2.2430435E+03
 8.1910334E+00  2.2443386E+03
 8.2131414E+00  2.2456042E+03
 8.2352486E+00  2.2451711E+03
 8.2573566E+00  2.2449292E+03
 8.2794647E+00  2.2439001E+03
 8.3015728E+00  2.2441077E+03
 8.3236809E+00  2.2445027E+03
 8.3457890E+00  2.2449248E+03
 8.3678970E+00  2.2435500E+03
 8.3900051E+00  2.2454312E+03
 8.4121132E+00  2.2472024E+03
 8.4342213E+00  2.2445945E+03
 8.4563293E+00  2.2429080E+03
 8.4784374E+00  2.2436765E+03
 8.5005455E+00  2.2455330E+03
 8.5226536E+00  2.2462314E+03
 8.5447617E+00  2.2475464E+03
 8.5668697E+00  2.2504617E+03
 8.5889778E+00  2.2560232E+03
 8.6110859E+00  2.2614255E+03
 8.6331940E+00  2.2686260E+03
 8.6553020E+00  2.2793945E+03
 8.6774101E+00  2.2918535E+03
 8.6995182E+00  2.3068342E+03
 8.7216263E+00  2.3174111E+03
 8.7437344E+00  2.3156292E+03
 8.7658424E+00  2.3032446E+03
 8.7879505E+00  2.2873184E+03
 8.8100586E+00  2.2742039E+03
 8.8321667E+00  2.2662314E+03
 8.8542747E+00  2.2634783E+03
 8.8763828E+00  2.2612695E+03
 8.8984909E+00  2.2564954E+03
 8.9205990E+00  2.2518989E+03
 8.9427071E+00  2.2499333E+03
 8.9648151E+00  2.2504297E+03
 8.9869232E+00  2.2542590E+03
 9.0090303E+00  2.2625874E+03
 9.0311384E+00  2.2780107E+03
 9.0532465E+00  2.2958699E+03
 9.0753546E+00  2.3102168E+03
 9.0974627E+00  2.3165894E+03
 9.1195707E+00  2.3165593E+03
 9.1416788E+00  2.3027520E+03
 9.1637869E+00  2.2776846E+03
 9.1858950E+00  2.2620042E+03
 9.2080030E+00  2.2570051E+03
 9.2301111E+00  2.2542002E+03
 9.2522192E+00  2.2510322E+03
 9.2743273E+00  2.2484988E+03
 9.2964354E+00  2.2494543E+03
 9.3185434E+00  2.2486992E+03
 9.3406515E+00  2.2492739E+03
 9.3627596E+00  2.2480989E+03
 9.3848677E+00  2.2470005E+03
 9.4069757E+00  2.2492434E+03
 9.4290838E+00  2.2543911E+03
 9.4511919E+00  2.2788145E+03
 9.4733000E+00  2.3395017E+03
 9.4954081E+00  2.3513005E+03
 9.5175161E+00  2.3702893E+03
 9.5396242E+00  2.3644761E+03
 9.5617323E+00  2.2888384E+03
 9.5838404E+00  2.2568735E+03
 9.6059484E+00  2.2565383E+03
 9.6280565E+00  2.2566089E+03
 9.6501646E+00  2.2547334E+03
 9.6722727E+00  2.2539998E+03
 9.6943808E+00  2.2521650E+03
 9.7164888E+00  2.2509502E+03
 9.7385969E+00  2.2541567E+03
 9.7607050E+00  2.2559700E+03
 9.7828131E+00  2.2568926E+03
 9.8049202E+00  2.2602156E+03
 9.8270283E+00  2.2634326E+03
 9.8491364E+00  2.2679839E+03
 9.8712444E+00  2.2733464E+03
 9.8933525E+00  2.2799868E+03
 9.9154606E+00  2.2850825E+03
 9.9375687E+00  2.2920762E+03
 9.9596767E+00  2.3004443E+03
 9.9817848E+00  2.3105093E+03
 1.0003893E+01  2.3193896E+03
 1.0026001E+01  2.3244729E+03
 1.0048109E+01  2.3234600E+03
 1.0070217E+01  2.3177219E+03
 1.0092325E+01  2.3077271E+03
 1.0114433E+01  2.3010259E+03
 1.0136541E+01  2.2987173E+03
 1.0158649E+01  2.2954536E+03
 1.0180758E+01  2.2882249E+03
 1.0202866E+01  2.2814226E+03
 1.0224974E+01  2.2771133E+03
 1.0247082E+01  2.2723169E+03
 1.0269190E+01  2.2693281E+03
 1.0291298E+01  2.2690298E+03
 1.0313406E+01  2.2684348E+03
 1.0335514E+01  2.2680942E+03
 1.0357622E+01  2.2690764E+03
 1.0379730E+01  2.2708330E+03
 1.0401838E+01  2.2732783E+03
 1.0423946E+01  2.2745850E+03
 1.0446054E+01  2.2745742E+03
 1.0468163E+01  2.2756064E+03
 1.0490271E+01  2.2782183E+03
 1.0512379E+01  2.2839597E+03
 1.0534487E+01  2.3196746E+03
 1.0556595E+01  2.3506843E+03
 1.0578702E+01  2.3436951E+03
 1.0600810E+01  2.3154155E+03
 1.0622918E+01  2.2951001E+03
 1.0645026E+01  2.2950884E+03
 1.0667134E+01  2.2970559E+03
 1.0689242E+01  2.2988787E+03
 1.0711350E+01  2.3007444E+03
 1.0733459E+01  2.3029656E+03
 1.0755567E+01  2.3063420E+03
 1.0777675E+01  2.3105242E+03
 1.0799783E+01  2.3102075E+03
 1.0821891E+01  2.3093057E+03
 1.0843999E+01  2.3112986E+03
 1.0866107E+01  2.3162646E+03
 1.0888215E+01  2.3232561E+03
 1.0910323E+01  2.3315691E+03
 1.0932431E+01  2.3505569E+03
 1.0954539E+01  2.4870554E+03
 1.0976647E+01  2.6566047E+03
 1.0998755E+01  2.7573381E+03
 1.1020864E+01  2.9521357E+03
 1.1042972E+01  3.2994097E+03
 1.1065080E+01  3.6325483E+03
 1.1087188E+01  3.9008154E+03
 1.1109296E+01  4.0747205E+03
 1.1131404E+01  4.0875793E+03
 1.1153512E+01  3.8370435E+03
 1.1175620E+01  3.3827715E+03
 1.1197728E+01  2.9895479E+03
 1.1219836E+01  2.7556636E+03
 1.1241944E+01  2.5748787E+03
 1.1264052E+01  2.4514146E+03
 1.1286160E+01  2.3915151E+03
 1.1308269E+01  2.3705488E+03
 1.1330377E+01  2.3563831E+03
 1.1352485E+01  2.3480100E+03
 1.1374592E+01  2.3414927E+03
 1.1396700E+01  2.3368962E+03
 1.1418808E+01  2.3327305E+03
 1.1440916E+01  2.3302253E+03
 1.1463024E+01  2.3295220E+03
 1.1485132E+01  2.3300564E+03
 1.1507240E+01  2.3301194E+03
 1.1529348E+01  2.3312402E+03
 1.1551456E+01  2.3334258E+03
 1.1573565E+01  2.3383174E+03
 1.1595673E+01  2.3456843E+03
 1.1617781E+01  2.3570388E+03
 1.1639889E+01  2.3693833E+03
 1.1661997E+01  2.3850830E+03
 1.1684105E+01  2.4088813E+03
 1.1706213E+01  2.4353704E+03
 1.1728321E+01  2.4545239E+03
 1.1750429E+01  2.4702314E+03
 1.1772537E+01  2.4829446E+03
 1.1794645E+01  2.4853101E+03
 1.1816753E+01  2.4697339E+03
 1.1838861E+01  2.4384399E+03
 1.1860970E+01  2.4060313E+03
 1.1883078E+01  2.3806563E+03
 1.1905186E+01  2.3638550E+03
 1.1927294E+01  2.3527930E+03
 1.1949402E+01  2.3444204E+03
 1.1971510E+01  2.3398958E+03
 1.1993618E+01  2.3395415E+03
 1.2015726E+01  2.3392883E+03
 1.2037834E+01  2.3396204E+03
 1.2059942E+01  2.3391711E+03
 1.2082050E+01  2.3385847E+03
 1.2104158E+01  2.3387285E+03
 1.2126266E+01  2.3393323E+03
 1.2148374E+01  2.3401943E+03
 1.2170482E+01  2.3413479E+03
 1.2192590E+01  2.3427327E+03
 1.2214698E+01  2.3434500E+03
 1.2236806E+01  2.3474314E+03
 1.2258914E+01  2.3517373E+03
 1.2281022E+01  2.3562659E+03
 1.2303130E+01  2.3623259E+03
 1.2325238E+01  2.3707024E+03
 1.2347346E+01  2.3809167E+03
 1.2369454E+01  2.3941655E+03
 1.2391562E+01  2.4101660E+03
 1.2413671E+01  2.4213301E+03
 1.2435779E+01  2.4268640E+03
 1.2457887E+01  2.4270564E+03
 1.2479995E+01  2.4199434E+03
 1.2502103E+01  2.4074102E+03
 1.2524211E+01  2.3977385E+03
 1.2546319E+01  2.3930894E+03
 1.2568427E+01  2.3913008E+03
 1.2590535E+01  2.3945298E+03
 1.2612643E+01  2.3984304E+03
 1.2634751E+01  2.4035984E+03
 1.2656859E+01  2.4111233E+03
 1.2678967E+01  2.4234241E+03
 1.2701076E+01  2.4385786E+03
 1.2723184E+01  2.4634485E+03
 1.2745292E+01  2.5136877E+03
 1.2767400E+01  2.5500823E+03
 1.2789508E+01  2.5454260E+03
 1.2811616E+01  2.5472942E+03
 1.2833724E+01  2.5901465E+03
 1.2855832E+01  2.6579844E+03
 1.2877940E+01  2.7005129E+03
 1.2900048E+01  2.6649646E+03
 1.2922156E+01  2.5680889E+03
 1.2944263E+01  2.4827114E+03
 1.2966372E+01  2.4333762E+03
 1.2988480E+01  2.4086938E+03
 1.3010588E+01  2.3958103E+03
 1.3032696E+01  2.3896763E+03
 1.3054804E+01  2.3865723E+03
 1.3076912E+01  2.3847554E+03
 1.3099020E+01  2.3833652E+03
 1.3121128E+01  2.3822625E+03
 1.3143236E+01  2.3825955E+03
 1.3165344E+01  2.3834888E+03
 1.3187452E+01  2.3838308E+03
 1.3209560E+01  2.3846099E+03
 1.3231668E+01  2.3840134E+03
 1.3253777E+01  2.3848335E+03
 1.3275885E+01  2.3865361E+03
 1.3297993E+01  2.3880801E+03
 1.3320101E+01  2.3897217E+03
 1.3342209E+01  2.3905884E+03
 1.3364317E+01  2.3905095E+03
 1.3386425E+01  2.3911489E+03
 1.3408533E+01  2.3896523E+03
 1.3430641E+01  2.3871965E+03
 1.3452749E+01  2.3859106E+03
 1.3474857E+01  2.3880852E+03
 1.3496965E+01  2.3900029E+03
 1.3519073E+01  2.3901035E+03
 1.3541182E+01  2.3880920E+03
 1.3563290E+01  2.3853003E+03
 1.3585398E+01  2.3811182E+03
 1.3607506E+01  2.3795305E+03
 1.3629614E+01  2.3790676E+03
 1.3651722E+01  2.3811152E+03
 1.3673830E+01  2.3823193E+03
 1.3695938E+01  2.3818765E+03
 1.3718045E+01  2.3815513E+03
 1.3740153E+01  2.3832124E+03
 1.3762261E+01  2.3871931E+03
 1.3784369E+01  2.3923149E+03
 1.3806478E+01  2.3961675E+03
 1.3828586E+01  2.3996187E+03
 1.3850694E+01  2.4056389E+03
 1.3872802E+01  2.4105745E+03
 1.3894910E+01  2.4168962E+03
 1.3917018E+01  2.4249888E+03
 1.3939126E+01  2.4323657E+03
 1.3961234E+01  2.4377573E+03
 1.3983342E+01  2.4429734E+03
 1.4005450E+01  2.4441843E+03
 1.4027558E+01  2.4425784E+03
 1.4049666E+01  2.4382979E+03
 1.4071774E+01  2.4334458E+03
 1.4093883E+01  2.4270613E+03
 1.4115991E+01  2.4204172E+03
 1.4138099E+01  2.4159441E+03
 1.4160207E+01  2.4109165E+03
 1.4182315E+01  2.4079214E+03
 1.4204423E+01  2.4060564E+03
 1.4226531E+01  2.4052905E+03
 1.4248639E+01  2.4079031E+03
 1.4270747E+01  2.4195627E+03
 1.4292855E+01  2.4462449E+03
 1.4314963E+01  2.4707810E+03
 1.4337071E+01  2.4669946E+03
 1.4359179E+01  2.4393616E+03
 1.4381288E+01  2.4248354E+03
 1.4403396E+01  2.4241086E+03
 1.4425504E+01  2.4236362E+03
 1.4447612E+01  2.4220881E+03
 1.4469720E+01  2.4161016E+03
 1.4491827E+01  2.4098469E+03
 1.4513935E+01  2.4086794E+03
 1.4536043E+01  2.4068689E+03
 1.4558151E+01  2.4060964E+03
 1.4580259E+01  2.4061455E+03
 1.4602367E+01  2.4059639E+03
 1.4624475E+01  2.4065103E+03
 1.4646584E+01  2.4065547E+03
 1.4668692E+01  2.4065835E+03
 1.4690800E+01  2.4087490E+03
 1.4712908E+01  2.4108445E+03
 1.4735016E+01  2.4109063E+03
 1.4757124E+01  2.4093931E+03
 1.4779232E+01  2.4092646E+03
 1.4801340E+01  2.4095400E+03
 1.4823448E+01  2.4096768E+03
 1.4845556E+01  2.4122236E+03
 1.4867664E+01  2.4131135E+03
 1.4889772E+01  2.4136270E+03
 1.4911880E+01  2.4143347E+03
 1.4933989E+01  2.4140625E+03
 1.4956097E+01  2.4149771E+03
 1.4978205E+01  2.4155808E+03
 1.5000313E+01  2.4162061E+03
 1.5022421E+01  2.4173433E+03
 1.5044529E+01  2.4180659E+03
 1.5066637E+01  2.4193882E+03
 1.5088745E+01  2.4220046E+03
 1.5110853E+01  2.4222751E+03
 1.5132961E+01  2.4221804E+03
 1.5155069E+01  2.4231152E+03
 1.5177177E+01  2.4229749E+03
 1.5199286E+01  2.4233611E+03
 1.5221394E+01  2.4245037E+03
 1.5243502E+01  2.4258635E+03
 1.5265610E+01  2.4272751E+03
 1.5287717E+01  2.4281484E+03
 1.5309825E+01  2.4288962E+03
 1.5331933E+01  2.4286919E+03
 1.5354041E+01  2.4285664E+03
 1.5376149E+01  2.4306948E+03
 1.5398257E+01  2.4310161E+03
 1.5420365E+01  2.4329363E+03
 1.5442473E+01  2.4348721E+03
 1.5464581E+01  2.4345020E+03
 1.5486690E+01  2.4362954E+03
 1.5508798E+01  2.4409004E+03
 1.5530906E+01  2.4424124E+03
 1.5553014E+01  2.4446169E+03
 1.5575122E+01  2.4485386E+03
 1.5597230E+01  2.4568259E+03
 1.5619338E+01  2.4691982E+03
 1.5641446E+01  2.4765554E+03
 1.5663554E+01  2.4748491E+03
 1.5685662E+01  2.4692732E+03
 1.5707770E+01  2.4641667E+03
 1.5729878E+01  2.4622219E+03
 1.5751987E+01  2.4617473E+03
 1.5774095E+01  2.4620623E+03
 1.5796203E+01  2.4621191E+03
 1.5818311E+01  2.4626577E+03
 1.5840419E+01  2.4621843E+03
 1.5862527E+01  2.4661494E+03
 1.5884635E+01  2.4700818E+03
 1.5906743E+01  2.4727322E+03
 1.5928851E+01  2.4736492E+03
 1.5950959E+01  2.4735515E+03
 1.5973067E+01  2.4715037E+03
 1.5995175E+01  2.4705974E+03
 1.6017282E+01  2.4690396E+03
 1.6039391E+01  2.4645828E+03
 1.6061499E+01  2.4596250E+03
 1.6083607E+01  2.4545652E+03
 1.6105715E+01  2.4510139E+03
 1.6127823E+01  2.4510127E+03
 1.6149931E+01  2.4503635E+03
 1.6172039E+01  2.4493718E+03
 1.6194147E+01  2.4475488E+03
 1.6216255E+01  2.4455708E+03
 1.6238363E+01  2.4463032E+03
 1.6260471E+01  2.4458679E+03
 1.6282579E+01  2.4450891E+03
 1.6304688E+01  2.4450718E+03
 1.6326796E+01  2.4445999E+03
 1.6348904E+01  2.4440244E+03
 1.6371012E+01  2.4455591E+03
 1.6393120E+01  2.4458298E+03
 1.6415228E+01  2.4457129E+03
 1.6437336E+01  2.4459172E+03
 1.6459444E+01  2.4436599E+03
 1.6481552E+01  2.4410681E+03
 1.6503660E+01  2.4414736E+03
 1.6525768E+01  2.4412275E+03
 1.6547876E+01  2.4406665E+03
 1.6569984E+01  2.4406775E+03
 1.6592093E+01  2.4400657E+03
 1.6614201E+01  2.4397312E+03
 1.6636309E+01  2.4392285E+03
 1.6658417E+01  2.4401230E+03
 1.6680525E+01  2.4403662E+03
 1.6702633E+01  2.4392988E+03
 1.6724741E+01  2.4393582E+03
 1.6746849E+01  2.4401465E+03
 1.6768957E+01  2.4400444E+03
 1.6791065E+01  2.4400359E+03
 1.6813173E+01  2.4384148E+03
 1.6835281E+01  2.4366055E+03
 1.6857389E+01  2.4348716E+03
 1.6879498E+01  2.4333958E+03
 1.6901606E+01  2.4327551E+03
 1.6923714E+01  2.4312839E+03
 1.6945822E+01  2.4314895E+03
 1.6967930E+01  2.4328765E+03
 1.6990038E+01  2.4313467E+03
 1.7012146E+01  2.4295903E+03
 1.7034254E+01  2.4282415E+03
 1.7056362E+01  2.4274705E+03
 1.7078470E+01  2.4267180E+03
 1.7100578E+01  2.4281282E+03
 1.7122686E+01  2.4283792E+03
 1.7144794E+01  2.4284385E+03
 1.7166903E+01  2.4280347E+03
 1.7189011E+01  2.4297874E+03
 1.7211119E+01  2.4309136E+03
 1.7233225E+01  2.4309951E+03
 1.7255333E+01  2.4341082E+03
 1.7277441E+01  2.4389275E+03
 1.7299549E+01  2.4442273E+03
 1.7321657E+01  2.4510161E+03
 1.7343765E+01  2.4590850E+03
 1.7365873E+01  2.4689736E+03
 1.7387981E+01  2.4768599E+03
 1.7410089E+01  2.4798879E+03
 1.7432198E+01  2.4783000E+03
 1.7454306E+01  2.4733032E+03
 1.7476414E+01  2.4676082E+03
 1.7498522E+01  2.4634910E+03
 1.7520630E+01  2.4586277E+03
 1.7542738E+01  2.4513943E+03
 1.7564846E+01  2.4427251E+03
 1.7586954E+01  2.4345273E+03
 1.7609062E+01  2.4295532E+03
 1.7631170E+01  2.4242417E+03
 1.7653278E+01  2.4193049E+03
 1.7675386E+01  2.4150906E+03
 1.7697495E+01  2.4124893E+03
 1.7719603E+01  2.4098433E+03
 1.7741711E+01  2.4078679E+03
 1.7763819E+01  2.4067686E+03
 1.7785927E+01  2.4051255E+03
 1.7808035E+01  2.4040962E+03
 1.7830143E+01  2.4042659E+03
 1.7852251E+01  2.4023279E+03
 1.7874359E+01  2.4008618E+03
 1.7896467E+01  2.4003442E+03
 1.7918575E+01  2.4000659E+03
 1.7940683E+01  2.4006155E+03
 1.7962791E+01  2.3998728E+03
 1.7984900E+01  2.3996367E+03
 1.8007008E+01  2.4014741E+03
 1.8029116E+01  2.4042822E+03
 1.8051224E+01  2.4071372E+03
 1.8073332E+01  2.4106658E+03
 1.8095440E+01  2.4188179E+03
 1.8117548E+01  2.4360295E+03
 1.8139656E+01  2.4680249E+03
 1.8161764E+01  2.4965879E+03
 1.8183872E+01  2.5115669E+03
 1.8205980E+01  2.5164631E+03
 1.8228088E+01  2.5165947E+03
 1.8250196E+01  2.5049675E+03
 1.8272305E+01  2.4745527E+03
 1.8294413E+01  2.4409395E+03
 1.8316521E+01  2.4168020E+03
 1.8338629E+01  2.3973164E+03
 1.8360737E+01  2.3819570E+03
 1.8382845E+01  2.3720864E+03
 1.8404953E+01  2.3662300E+03
 1.8427061E+01  2.3594858E+03
 1.8449169E+01  2.3523687E+03
 1.8471277E+01  2.3463667E+03
 1.8493385E+01  2.3420396E+03
 1.8515493E+01  2.3382817E+03
 1.8537601E+01  2.3326450E+03
 1.8559710E+01  2.3296316E+03
 1.8581818E+01  2.3270503E+03
 1.8603926E+01  2.3241489E+03
 1.8626034E+01  2.3232156E+03
 1.8648142E+01  2.3245823E+03
 1.8670250E+01  2.3298203E+03
 1.8692358E+01  2.3352153E+03
 1.8714466E+01  2.3313789E+03
 1.8736574E+01  2.3252859E+03
 1.8758682E+01  2.3188262E+03
 1.8780790E+01  2.3162192E+03
 1.8802896E+01  2.3131184E+03
 1.8825005E+01  2.3089983E+03
 1.8847113E+01  2.3057539E+03
 1.8869221E+01  2.3022202E+03
 1.8891329E+01  2.2994138E+03
 1.8913437E+01  2.2995303E+03
 1.8935545E+01  2.2998350E+03
 1.8957653E+01  2.2974976E+03
 1.8979761E+01  2.2927117E+03
 1.9001869E+01  2.2893474E+03
 1.9023977E+01  2.2852793E+03
 1.9046085E+01  2.2789155E+03
 1.9068193E+01  2.2726917E+03
 1.9090302E+01  2.2670461E+03
 1.9112410E+01  2.2633103E+03
 1.9134518E+01  2.2586978E+03
 1.9156626E+01  2.2535239E+03
 1.9178734E+01  2.2500972E+03
 1.9200842E+01  2.2480959E+03
 1.9222950E+01  2.2469280E+03
 1.9245058E+01  2.2462271E+03
 1.9267166E+01  2.2482803E+03
 1.9289274E+01  2.2526653E+03
 1.9311382E+01  2.2573286E+03
 1.9333490E+01  2.2610415E+03
 1.9355598E+01  2.2614414E+03
 1.9377707E+01  2.2559844E+03
 1.9399815E+01  2.2474727E+03
 1.9421923E+01  2.2384321E+03
 1.9444031E+01  2.2293066E+03
 1.9466139E+01  2.2212634E+03
 1.9488247E+01  2.2164617E+03
 1.9510355E+01  2.2132441E+03
 1.9532463E+01  2.2101294E+03
 1.9554571E+01  2.2080303E+03
 1.9576679E+01  2.2054763E+03
 1.9598787E+01  2.2017258E+03
 1.9620895E+01  2.2001726E+03
 1.9643003E+01  2.1987507E+03
 1.9665112E+01  2.1943655E+03
 1.9687220E+01  2.1908184E+03
 1.9709328E+01  2.1888989E+03
 1.9731436E+01  2.1871426E+03
 1.9753544E+01  2.1840894E+03
 1.9775652E+01  2.1814102E+03
 1.9797760E+01  2.1789758E+03
 1.9819868E+01  2.1761313E+03
 1.9841976E+01  2.1738330E+03
 1.9864084E+01  2.1725195E+03
 1.9886192E+01  2.1712451E+03
 1.9908300E+01  2.1693313E+03
 1.9930408E+01  2.1659063E+03
 1.9952517E+01  2.1637883E+03
 1.9974625E+01  2.1625854E+03
 1.9996733E+01  2.1609644E+03
 2.0018841E+01  2.1590430E+03
 2.0040949E+01  2.1573442E+03
 2.0063057E+01  2.1569199E+03
 2.0085165E+01  2.1566775E+03
 2.0107273E+01  2.1542988E+03
 2.0129381E+01  2.1525090E+03
 2.0151489E+01  2.1527368E+03
 2.0173597E+01  2.1523174E+03
 2.0195705E+01  2.1508955E+03
 2.0217813E+01  2.1495251E+03
 2.0239922E+01  2.1492974E+03
 2.0262030E+01  2.1497444E+03
 2.0284138E+01  2.1498589E+03
 2.0306246E+01  2.1481521E+03
 2.0328354E+01  2.1461797E+03
 2.0350462E+01  2.1445386E+03
 2.0372568E+01  2.1437471E+03
 2.0394676E+01  2.1427981E+03
 2.0416784E+01  2.1475381E+03
 2.0438892E+01  2.1634426E+03
 2.0461000E+01  2.1828542E+03
 2.0483109E+01  2.1743108E+03
 2.0505217E+01  2.1499536E+03
 2.0527325E+01  2.1308503E+03
 2.0549433E+01  2.1210112E+03
 2.0571541E+01  2.1146704E+03
 2.0593649E+01  2.1103037E+03
 2.0615757E+01  2.1087859E+03
 2.0637865E+01  2.1069397E+03
 2.0659973E+01  2.1049272E+03
 2.0682081E+01  2.1033706E+03
 2.0704189E+01  2.1005020E+03
 2.0726297E+01  2.0985420E+03
 2.0748405E+01  2.0973789E+03
 2.0770514E+01  2.0961685E+03
 2.0792622E+01  2.0945535E+03
 2.0814730E+01  2.0937747E+03
 2.0836838E+01  2.0931401E+03
 2.0858946E+01  2.0915737E+03
 2.0881054E+01  2.0898938E+03
 2.0903162E+01  2.0896218E+03
 2.0925270E+01  2.0890720E+03
 2.0947378E+01  2.0877327E+03
 2.0969486E+01  2.0869165E+03
 2.0991594E+01  2.0893091E+03
 2.1013702E+01  2.0897837E+03
 2.1035810E+01  2.0889734E+03
 2.1057919E+01  2.0924788E+03
 2.1080027E+01  2.0979199E+03
 2.1102135E+01  2.1029141E+03
 2.1124243E+01  2.1083303E+03
 2.1146351E+01  2.1162388E+03
 2.1168459E+01  2.1231946E+03
 2.1190567E+01  2.1325864E+03
 2.1212675E+01  2.1513267E+03
 2.1234783E+01  2.1779897E+03
 2.1256891E+01  2.2042678E+03
 2.1278999E+01  2.2501670E+03
 2.1301107E+01  2.2543679E+03
 2.1323215E+01  2.2611182E+03
 2.1345324E+01  2.2829663E+03
 2.1367432E+01  2.3166487E+03
 2.1389540E+01  2.3563530E+03
 2.1411648E+01  2.3813652E+03
 2.1433756E+01  2.3576108E+03
 2.1455864E+01  2.2825107E+03
 2.1477972E+01  2.2073545E+03
 2.1500080E+01  2.1518699E+03
 2.1522188E+01  2.1146050E+03
 2.1544296E+01  2.0903994E+03
 2.1566404E+01  2.0733916E+03
 2.1588512E+01  2.0610356E+03
 2.1610620E+01  2.0512390E+03
 2.1632729E+01  2.0438746E+03
 2.1654837E+01  2.0387701E+03
 2.1676945E+01  2.0333091E+03
 2.1699053E+01  2.0294912E+03
 2.1721161E+01  2.0267654E+03
 2.1743269E+01  2.0234275E+03
 2.1765377E+01  2.0203374E+03
 2.1787485E+01  2.0180032E+03
 2.1809593E+01  2.0155377E+03
 2.1831701E+01  2.0143142E+03
 2.1853809E+01  2.0133901E+03
 2.1875917E+01  2.0108837E+03
 2.1898026E+01  2.0078057E+03
 2.1920134E+01  2.0065962E+03
 2.1942240E+01  2.0051354E+03
 2.1964348E+01  2.0020994E+03
 2.1986456E+01  2.0010752E+03
 2.2008564E+01  1.9996670E+03
 2.2030672E+01  1.9966753E+03
 2.2052780E+01  1.9945391E+03
 2.2074888E+01  1.9935227E+03
 2.2096996E+01  1.9912983E+03
 2.2119104E+01  1.9892726E+03
 2.2141212E+01  1.9881857E+03
 2.2163321E+01  1.9872817E+03
 2.2185429E+01  1.9856520E+03
 2.2207537E+01  1.9847919E+03
 2.2229645E+01  1.9839624E+03
 2.2251753E+01  1.9834327E+03
 2.2273861E+01  1.9847244E+03
 2.2295969E+01  1.9862692E+03
 2.2318077E+01  1.9892872E+03
 2.2340185E+01  1.9893096E+03
 2.2362293E+01  1.9878911E+03
 2.2384401E+01  1.9841937E+03
 2.2406509E+01  1.9808669E+03
 2.2428617E+01  1.9754912E+03
 2.2450726E+01  1.9715463E+03
 2.2472834E+01  1.9674883E+03
 2.2494942E+01  1.9633556E+03
 2.2517050E+01  1.9600234E+03
 2.2539158E+01  1.9556901E+03
 2.2561266E+01  1.9521915E+03
 2.2583374E+01  1.9504694E+03
 2.2605482E+01  1.9472721E+03
 2.2627590E+01  1.9437332E+03
 2.2649698E+01  1.9434044E+03
 2.2671806E+01  1.9431299E+03
 2.2693914E+01  1.9414578E+03
 2.2716022E+01  1.9379633E+03
 2.2738131E+01  1.9358962E+03
 2.2760239E+01  1.9341412E+03
 2.2782347E+01  1.9309478E+03
 2.2804455E+01  1.9296377E+03
 2.2826563E+01  1.9292954E+03
 2.2848671E+01  1.9262382E+03
 2.2870779E+01  1.9254152E+03
 2.2892887E+01  1.9233481E+03
 2.2914995E+01  1.9200005E+03
 2.2937103E+01  1.9173428E+03
 2.2959211E+01  1.9175212E+03
 2.2981319E+01  1.9123203E+03
 2.3003428E+01  1.9119167E+03
 2.3025536E+01  1.9102518E+03
 2.3047644E+01  1.9074764E+03
 2.3069752E+01  1.9067126E+03
 2.3091860E+01  1.9053629E+03
 2.3113968E+01  1.9009027E+03
 2.3136076E+01  1.8673802E+03
 2.3158184E+01  1.7604642E+03
 2.3180292E+01  1.6593751E+03
 2.3202400E+01  1.5883097E+03
 2.3224508E+01  1.5466494E+03
 2.3246616E+01  1.5074042E+03
 2.3268724E+01  1.4627805E+03
 2.3290833E+01  1.4189473E+03
 2.3312941E+01  1.4062124E+03
 2.3335049E+01  1.3833292E+03
 2.3357157E+01  1.3596095E+03
 2.3379265E+01  1.3342335E+03
 2.3401373E+01  1.3134227E+03
 2.3423481E+01  1.2908627E+03
 2.3445589E+01  1.2711345E+03
 2.3467697E+01  1.2526105E+03
 2.3489805E+01  1.2339650E+03
 2.3511911E+01  1.2196887E+03
 2.3534019E+01  1.2204805E+03
 2.3556128E+01  1.2132164E+03
 2.3578236E+01  1.2063707E+03
 2.3600344E+01  1.1974893E+03
 2.3622452E+01  1.1904108E+03
 2.3644560E+01  1.1805626E+03
 2.3666668E+01  1.1734463E+03
 2.3688776E+01  1.1636461E+03
 2.3710884E+01  1.1574807E+03
 2.3732992E+01  1.1499384E+03
 2.3755100E+01  1.1445823E+03
 2.3777208E+01  1.1401581E+03
 2.3799316E+01  1.1375128E+03
 2.3821424E+01  1.1351858E+03
 2.3843533E+01  1.1332399E+03
 2.3865641E+01  1.1334923E+03
 2.3887749E+01  1.1321714E+03
 2.3909857E+01  1.1331792E+03
 2.3931965E+01  1.1319742E+03
 2.3954073E+01  1.1315944E+03
 2.3976181E+01  1.1311261E+03
 2.3998289E+01  1.1312041E+03
 2.4020397E+01  1.1289127E+03
 2.4042505E+01  1.1291027E+03
 2.4064613E+01  1.1239404E+03
 2.4086721E+01  1.1216724E+03
 2.4108829E+01  1.1164344E+03
 2.4130938E+01  1.1082709E+03
 2.4153046E+01  1.1003414E+03
 2.4175154E+01  1.0888510E+03
 2.4197262E+01  1.0782614E+03
 2.4219370E+01  1.0670643E+03
 2.4241478E+01  1.0517817E+03
 2.4263586E+01  1.0380754E+03
 2.4285694E+01  1.0232203E+03
 2.4307802E+01  1.0058883E+03
 2.4329910E+01  9.8910175E+02
 2.4352018E+01  9.7129431E+02
 2.4374126E+01  9.5150604E+02
 2.4396235E+01  9.2961047E+02
 2.4418343E+01  9.0681067E+02
 2.4440451E+01  8.9344165E+02
 2.4462559E+01  8.7022076E+02
 2.4484667E+01  8.4121930E+02
 2.4506775E+01  8.1590784E+02
 2.4528883E+01  7.7829089E+02
 2.4550991E+01  7.5078510E+02
 2.4573099E+01  7.0002966E+02
 2.4595207E+01  6.5420056E+02
 2.4617315E+01  5.9901782E+02
 2.4639423E+01  5.6223279E+02
 2.4661531E+01  5.1895984E+02
 2.4683640E+01  4.6150256E+02
 2.4705748E+01  3.8875171E+02
 2.4727856E+01  2.9637073E+02
 2.4749964E+01  1.4820767E+02
 2.4772072E+01  2.5535652E+01
 2.4794180E+01  3.9456036E-02
 2.4816288E+01  0.0000000E+00
 2.4838396E+01  0.0000000E+00
 2.4860504E+01  0.0000000E+00
 2.4882612E+01  0.0000000E+00
 2.4904720E+01  0.0000000E+00
 2.4926828E+01  0.0000000E+00
 2.4948936E+01  0.0000000E+00
 2.4971045E+01  0.0000000E+00
 2.4993153E+01  0.0000000E+00
 2.5015261E+01  0.0000000E+00
 2.5037369E+01  0.0000000E+00
 2.5059477E+01  0.0000000E+00
 2.5081583E+01  0.0000000E+00
 2.5103691E+01  0.0000000E+00
 2.5125799E+01  0.0000000E+00
 2.5147907E+01  0.0000000E+00
 2.5170015E+01  0.0000000E+00
 2.5192123E+01  0.0000000E+00
 2.5214231E+01  0.0000000E+00
 2.5236340E+01  0.0000000E+00
 2.5258448E+01  0.0000000E+00
 2.5280556E+01  0.0000000E+00
 2.5302664E+01  0.0000000E+00
 2.5324772E+01  0.0000000E+00
 2.5346880E+01  0.0000000E+00
 2.5368988E+01  0.0000000E+00
 2.5391096E+01  0.0000000E+00
 2.5413204E+01  0.0000000E+00
 2.5435312E+01  0.0000000E+00
 2.5457420E+01  0.0000000E+00
 2.5479528E+01  0.0000000E+00
 2.5501637E+01  0.0000000E+00
 2.5523745E+01  0.0000000E+00
 2.5545853E+01  0.0000000E+00
 2.5567961E+01  0.0000000E+00
 2.5590069E+01  0.0000000E+00
 2.5612177E+01  0.0000000E+00
 2.5634285E+01  0.0000000E+00
 2.5656393E+01  0.0000000E+00
 2.5678501E+01  0.0000000E+00
 2.5700609E+01  0.0000000E+00
 2.5722717E+01  0.0000000E+00
 2.5744825E+01  0.0000000E+00
 2.5766933E+01  0.0000000E+00
 2.5789042E+01  0.0000000E+00
 2.5811150E+01  0.0000000E+00
 2.5833258E+01  0.0000000E+00
 2.5855366E+01  0.0000000E+00
 2.5877474E+01  0.0000000E+00
 2.5899582E+01  0.0000000E+00
 2.5921690E+01  0.0000000E+00
 2.5943798E+01  0.0000000E+00
 2.5965906E+01  0.0000000E+00
 2.5988014E+01  0.0000000E+00
 2.6010122E+01  0.0000000E+00
 2.6032230E+01  0.0000000E+00
 2.6054338E+01  0.0000000E+00
 2.6076447E+01  0.0000000E+00
 2.6098555E+01  0.0000000E+00
 2.6120663E+01  0.0000000E+00
 2.6142771E+01  0.0000000E+00
 2.6164879E+01  0.0000000E+00
 2.6186987E+01  0.0000000E+00
 2.6209095E+01  0.0000000E+00
 2.6231203E+01  0.0000000E+00
 2.6253311E+01  0.0000000E+00
 2.6275419E+01  0.0000000E+00
 2.6297527E+01  0.0000000E+00
 2.6319635E+01  0.0000000E+00
 2.6341743E+01  0.0000000E+00
 2.6363852E+01  0.0000000E+00
 2.6385960E+01  0.0000000E+00
 2.6408068E+01  0.0000000E+00
 2.6430176E+01  0.0000000E+00
 2.6452284E+01  0.0000000E+00
 2.6474392E+01  0.0000000E+00
 2.6496500E+01  0.0000000E+00
 2.6518608E+01  0.0000000E+00
 2.6540716E+01  0.0000000E+00
 2.6562824E+01  0.0000000E+00
 2.6584932E+01  0.0000000E+00
 2.6607040E+01  0.0000000E+00
 2.6629147E+01  0.0000000E+00
 2.6651255E+01  0.0000000E+00
 2.6673363E+01  0.0000000E+00
 2.6695471E+01  0.0000000E+00
 2.6717579E+01  0.0000000E+00
 2.6739687E+01  0.0000000E+00
 2.6761795E+01  0.0000000E+00
 2.6783903E+01  0.0000000E+00
 2.6806011E+01  0.0000000E+00
 2.6828119E+01  0.0000000E+00
 2.6850227E+01  0.0000000E+00
 2.6872335E+01  0.0000000E+00
 2.6894444E+01  0.0000000E+00
 2.6916552E+01  0.0000000E+00
 2.6938660E+01  0.0000000E+00
 2.6960768E+01  0.0000000E+00
 2.6982876E+01  0.0000000E+00
 2.7004984E+01  0.0000000E+00
 2.7027092E+01  0.0000000E+00
 2.7049200E+01  0.0000000E+00
 2.7071308E+01  0.0000000E+00
 2.7093416E+01  0.0000000E+00
 2.7115524E+01  0.0000000E+00
 2.7137632E+01  0.0000000E+00
 2.7159740E+01  0.0000000E+00
 2.7181849E+01  0.0000000E+00
 2.7203957E+01  0.0000000E+00
 2.7226065E+01  0.0000000E+00
 2.7248173E+01  0.0000000E+00
 2.7270281E+01  0.0000000E+00
 2.7292389E+01  0.0000000E+00
 2.7314497E+01  0.0000000E+00
 2.7336605E+01  0.0000000E+00
 2.7358713E+01  0.0000000E+00
 2.7380821E+01  0.0000000E+00
 2.7402929E+01  0.0000000E+00
 2.7425037E+01  0.0000000E+00
 2.7447145E+01  0.0000000E+00
 2.7469254E+01  0.0000000E+00
 2.7491362E+01  0.0000000E+00
 2.7513470E+01  0.0000000E+00
 2.7535578E+01  0.0000000E+00
 2.7557686E+01  0.0000000E+00
 2.7579794E+01  0.0000000E+00
 2.7601902E+01  0.0000000E+00
 2.7624010E+01  0.0000000E+00
 2.7646118E+01  0.0000000E+00
 2.7668226E+01  0.0000000E+00
 2.7690334E+01  0.0000000E+00
 2.7712442E+01  0.0000000E+00
 2.7734550E+01  0.0000000E+00
 2.7756659E+01  0.0000000E+00
 2.7778767E+01  0.0000000E+00
 2.7800875E+01  0.0000000E+00
 2.7822983E+01  0.0000000E+00
 2.7845091E+01  0.0000000E+00
 2.7867199E+01  0.0000000E+00
 2.7889307E+01  0.0000000E+00
 2.7911415E+01  0.0000000E+00
 2.7933523E+01  0.0000000E+00
 2.7955631E+01  0.0000000E+00
 2.7977739E+01  0.0000000E+00
 2.7999847E+01  0.0000000E+00
 2.8021955E+01  0.0000000E+00
 2.8044064E+01  0.0000000E+00
 2.8066172E+01  0.0000000E+00
 2.8088280E+01  0.0000000E+00
 2.8110388E+01  0.0000000E+00
 2.8132496E+01  0.0000000E+00
 2.8154604E+01  0.0000000E+00
 2.8176712E+01  0.0000000E+00
 2.8198818E+01  0.0000000E+00
 2.8220926E+01  0.0000000E+00
 2.8243034E+01  0.0000000E+00
 2.8265142E+01  0.0000000E+00
 2.8287251E+01  0.0000000E+00
 2.8309359E+01  0.0000000E+00
 2.8331467E+01  0.0000000E+00
 2.8353575E+01  0.0000000E+00
 2.8375683E+01  0.0000000E+00
 2.8397791E+01  0.0000000E+00
 2.8419899E+01  0.0000000E+00
 2.8442007E+01  0.0000000E+00
 2.8464115E+01  0.0000000E+00
 2.8486223E+01  0.0000000E+00
 2.8508331E+01  0.0000000E+00
 2.8530439E+01  0.0000000E+00
 2.8552547E+01  0.0000000E+00
 2.8574656E+01  0.0000000E+00
 2.8596764E+01  0.0000000E+00
 2.8618872E+01  0.0000000E+00
 2.8640980E+01  0.0000000E+00
 2.8663088E+01  0.0000000E+00
 2.8685196E+01  0.0000000E+00
 2.8707304E+01  0.0000000E+00
 2.8729412E+01  0.0000000E+00
 2.8751520E+01  0.0000000E+00
 2.8773628E+01  0.0000000E+00
 2.8795736E+01  0.0000000E+00
 2.8817844E+01  0.0000000E+00
 2.8839952E+01  0.0000000E+00
 2.8862061E+01  0.0000000E+00
 2.8884169E+01  0.0000000E+00
 2.8906277E+01  0.0000000E+00
 2.8928385E+01  0.0000000E+00
 2.8950493E+01  0.0000000E+00
 2.8972601E+01  0.0000000E+00
 2.8994709E+01  0.0000000E+00
 2.9016817E+01  0.0000000E+00
 2.9038925E+01  0.0000000E+00
 2.9061033E+01  0.0000000E+00
 2.9083141E+01  0.0000000E+00
 2.9105249E+01  0.0000000E+00
 2.9127357E+01  0.0000000E+00
 2.9149466E+01  0.0000000E+00
 2.9171574E+01  0.0000000E+00
 2.9193682E+01  0.0000000E+00
 2.9215790E+01  0.0000000E+00
 2.9237898E+01  0.0000000E+00
 2.9260006E+01  0.0000000E+00
 2.9282114E+01  0.0000000E+00
 2.9304222E+01  0.0000000E+00
 2.9326330E+01  0.0000000E+00
 2.9348438E+01  0.0000000E+00
 2.9370546E+01  0.0000000E+00
 2.9392654E+01  0.0000000E+00
 2.9414762E+01  0.0000000E+00
 2.9436871E+01  0.0000000E+00
 2.9458979E+01  0.0000000E+00
 2.9481087E+01  0.0000000E+00
 2.9503195E+01  0.0000000E+00
 2.9525303E+01  0.0000000E+00
 2.9547411E+01  0.0000000E+00
 2.9569519E+01  0.0000000E+00
 2.9591627E+01  0.0000000E+00
 2.9613735E+01  0.0000000E+00
 2.9635843E+01  0.0000000E+00
 2.9657951E+01  0.0000000E+00
 2.9680059E+01  0.0000000E+00
 2.9702168E+01  0.0000000E+00
 2.9724276E+01  0.0000000E+00
 2.9746384E+01  0.0000000E+00
 2.9768490E+01  0.0000000E+00
 2.9790598E+01  0.0000000E+00
 2.9812706E+01  0.0000000E+00
 2.9834814E+01  0.0000000E+00
 2.9856922E+01  0.0000000E+00
 2.9879030E+01  0.0000000E+00
 2.9901138E+01  0.0000000E+00
 2.9923246E+01  0.0000000E+00
 2.9945354E+01  0.0000000E+00
 2.9967463E+01  0.0000000E+00
 2.9989571E+01  0.0000000E+00
 3.0011679E+01  0.0000000E+00
 3.0033787E+01  0.0000000E+00
 3.0055895E+01  0.0000000E+00
 3.0078003E+01  0.0000000E+00
 3.0100111E+01  0.0000000E+00
 3.0122219E+01  0.0000000E+00
 3.0144327E+01  0.0000000E+00
 3.0166435E+01  0.0000000E+00
 3.0188543E+01  0.0000000E+00
 3.0210651E+01  0.0000000E+00
 3.0232759E+01  0.0000000E+00
 3.0254868E+01  0.0000000E+00
 3.0276976E+01  0.0000000E+00
 3.0299084E+01  0.0000000E+00
 3.0321192E+01  0.0000000E+00
 3.0343300E+01  0.0000000E+00
 3.0365408E+01  0.0000000E+00
 3.0387516E+01  0.0000000E+00
 3.0409624E+01  0.0000000E+00
 3.0431732E+01  0.0000000E+00
 3.0453840E+01  0.0000000E+00
 3.0475948E+01  0.0000000E+00
 3.0498056E+01  0.0000000E+00
 3.0520164E+01  0.0000000E+00
 3.0542273E+01  0.0000000E+00
 3.0564381E+01  0.0000000E+00
 3.0586489E+01  0.0000000E+00
 3.0608597E+01  0.0000000E+00
 3.0630705E+01  0.0000000E+00
 3.0652813E+01  0.0000000E+00
 3.0674921E+01  0.0000000E+00
 3.0697029E+01  0.0000000E+00
 3.0719137E+01  0.0000000E+00
 3.0741245E+01  0.0000000E+00
 3.0763353E+01  0.0000000E+00
 3.0785461E+01  0.0000000E+00
 3.0807570E+01  0.0000000E+00
 3.0829678E+01  0.0000000E+00
 3.0851786E+01  0.0000000E+00
 3.0873894E+01  0.0000000E+00
 3.0896002E+01  0.0000000E+00
 3.0918110E+01  0.0000000E+00
 3.0940218E+01  0.0000000E+00
 3.0962326E+01  0.0000000E+00
 3.0984434E+01  0.0000000E+00
 3.1006542E+01  0.0000000E+00
 3.1028650E+01  0.0000000E+00
 3.1050758E+01  0.0000000E+00
 3.1072866E+01  0.0000000E+00
 3.1094975E+01  0.0000000E+00
 3.1117083E+01  0.0000000E+00
 3.1139191E+01  0.0000000E+00
 3.1161299E+01  0.0000000E+00
 3.1183407E+01  0.0000000E+00
 3.1205515E+01  0.0000000E+00
 3.1227623E+01  0.0000000E+00
 3.1249731E+01  0.0000000E+00
 3.1271839E+01  0.0000000E+00
 3.1293947E+01  0.0000000E+00
 3.1316055E+01  0.0000000E+00
 3.1338161E+01  0.0000000E+00
 3.1360270E+01  0.0000000E+00
 3.1382378E+01  0.0000000E+00
 3.1404486E+01  0.0000000E+00
 3.1426594E+01  0.0000000E+00
 3.1448702E+01  0.0000000E+00
 3.1470810E+01  0.0000000E+00
 3.1492918E+01  0.0000000E+00
 3.1515026E+01  0.0000000E+00
 3.1537134E+01  0.0000000E+00
 3.1559242E+01  0.0000000E+00
 3.1581350E+01  0.0000000E+00
 3.1603458E+01  0.0000000E+00
 3.1625566E+01  0.0000000E+00
 3.1647675E+01  0.0000000E+00
 3.1669783E+01  0.0000000E+00
 3.1691891E+01  0.0000000E+00
 3.1713999E+01  0.0000000E+00
 3.1736107E+01  0.0000000E+00
 3.1758215E+01  0.0000000E+00
 3.1780323E+01  0.0000000E+00
 3.1802431E+01  0.0000000E+00
 3.1824539E+01  0.0000000E+00
 3.1846647E+01  0.0000000E+00
 3.1868755E+01  0.0000000E+00
 3.1890863E+01  0.0000000E+00
 3.1912971E+01  0.0000000E+00
 3.1935080E+01  0.0000000E+00
 3.1957188E+01  0.0000000E+00
 3.1979296E+01  0.0000000E+00
 3.2001404E+01  0.0000000E+00
 3.2023514E+01  0.0000000E+00
 3.2045620E+01  0.0000000E+00
 3.2067730E+01  0.0000000E+00
 3.2089836E+01  0.0000000E+00
 3.2111942E+01  0.0000000E+00
 3.2134052E+01  0.0000000E+00
 3.2156158E+01  0.0000000E+00
 3.2178268E+01  0.0000000E+00
 3.2200375E+01  0.0000000E+00
 3.2222485E+01  0.0000000E+00
 3.2244591E+01  0.0000000E+00
 3.2266701E+01  0.0000000E+00
 3.2288807E+01  0.0000000E+00
 3.2310917E+01  0.0000000E+00
 3.2333023E+01  0.0000000E+00
 3.2355133E+01  0.0000000E+00
 3.2377239E+01  0.0000000E+00
 3.2399349E+01  0.0000000E+00
 3.2421455E+01  0.0000000E+00
 3.2443565E+01  0.0000000E+00
 3.2465672E+01  0.0000000E+00
 3.2487782E+01  0.0000000E+00
 3.2509888E+01  0.0000000E+00
 3.2531998E+01  0.0000000E+00
 3.2554104E+01  0.0000000E+00
 3.2576214E+01  0.0000000E+00
 3.2598320E+01  0.0000000E+00
 3.2620430E+01  0.0000000E+00
 3.2642536E+01  0.0000000E+00
 3.2664646E+01  0.0000000E+00
 3.2686752E+01  0.0000000E+00
 3.2708862E+01  0.0000000E+00
 3.2730968E+01  0.0000000E+00
