D:\DATA\UserData\CuiTian20190403\\CWH\BA\BA_9.tif: 2-theta Scan
2-Theta Angle (Degrees)
Intensity
       1481
 1.1054026E-02  3.5615612E+01
 3.3162076E-02  3.6943054E+01
 5.5270128E-02  4.0425068E+01
 7.7378176E-02  4.2676792E+01
 9.9486232E-02  4.2795170E+01
 1.2159428E-01  4.2268318E+01
 1.4370233E-01  4.2805679E+01
 1.6581038E-01  4.2490078E+01
 1.8791844E-01  4.2276955E+01
 2.1002649E-01  4.3293926E+01
 2.3213454E-01  4.3455074E+01
 2.5424260E-01  4.1995335E+01
 2.7635065E-01  4.1842701E+01
 2.9845870E-01  4.1699886E+01
 3.2056674E-01  4.1807438E+01
 3.4267479E-01  4.2139149E+01
 3.6478284E-01  4.2405590E+01
 3.8689089E-01  4.2707241E+01
 4.0899894E-01  4.2415462E+01
 4.3110698E-01  4.2539150E+01
 4.5321503E-01  4.3360161E+01
 4.7532311E-01  4.4073902E+01
 4.9743116E-01  4.3453503E+01
 5.1953918E-01  4.3223469E+01
 5.4164726E-01  4.3395836E+01
 5.6375527E-01  4.3085739E+01
 5.8586335E-01  4.2714378E+01
 6.0797143E-01  4.3097870E+01
 6.3007945E-01  4.3318245E+01
 6.5218753E-01  4.2491440E+01
 6.7429554E-01  4.2240475E+01
 6.9640362E-01  4.3304329E+01
 7.1851164E-01  4.3686832E+01
 7.4061972E-01  4.3968353E+01
 7.6272774E-01  4.3841415E+01
 7.8483582E-01  4.3912735E+01
 8.0694389E-01  4.4401272E+01
 8.2905191E-01  4.3684315E+01
 8.5115999E-01  4.3653767E+01
 8.7326801E-01  4.4003735E+01
 8.9537609E-01  4.4280441E+01
 9.1748410E-01  4.3933136E+01
 9.3959218E-01  4.3715992E+01
 9.6170020E-01  4.4065571E+01
 9.8380828E-01  4.4153973E+01
 1.0059164E+00  4.4438976E+01
 1.0280243E+00  4.4434254E+01
 1.0501324E+00  4.4020767E+01
 1.0722405E+00  4.4004452E+01
 1.0943485E+00  4.4056152E+01
 1.1164566E+00  4.4297634E+01
 1.1385646E+00  4.4741402E+01
 1.1606727E+00  4.5153667E+01
 1.1827807E+00  4.5870441E+01
 1.2048888E+00  4.6077473E+01
 1.2269968E+00  4.5799213E+01
 1.2491049E+00  4.5896446E+01
 1.2712129E+00  4.6254997E+01
 1.2933210E+00  4.6400181E+01
 1.3154291E+00  4.6570240E+01
 1.3375371E+00  4.6640434E+01
 1.3596451E+00  4.6833736E+01
 1.3817532E+00  4.6602009E+01
 1.4038613E+00  4.6517773E+01
 1.4259692E+00  4.6842915E+01
 1.4480773E+00  4.7346756E+01
 1.4701854E+00  4.7305943E+01
 1.4922935E+00  4.7234749E+01
 1.5144016E+00  4.7270432E+01
 1.5365095E+00  4.7303696E+01
 1.5586176E+00  4.7615559E+01
 1.5807257E+00  4.8448338E+01
 1.6028337E+00  4.8679817E+01
 1.6249417E+00  4.9036140E+01
 1.6470498E+00  4.9428120E+01
 1.6691579E+00  5.0385822E+01
 1.6912659E+00  5.0881050E+01
 1.7133739E+00  5.1174236E+01
 1.7354820E+00  5.1648499E+01
 1.7575901E+00  5.2439960E+01
 1.7796981E+00  5.3680653E+01
 1.8018062E+00  5.5041672E+01
 1.8239142E+00  5.6656174E+01
 1.8460222E+00  5.8914417E+01
 1.8681303E+00  6.4042999E+01
 1.8902384E+00  7.5050797E+01
 1.9123464E+00  9.7828415E+01
 1.9344544E+00  1.3420412E+02
 1.9565625E+00  1.7823671E+02
 1.9786706E+00  2.2367055E+02
 2.0007787E+00  2.6692810E+02
 2.0228868E+00  3.0843045E+02
 2.0449948E+00  3.5162506E+02
 2.0671027E+00  3.9419461E+02
 2.0892107E+00  4.4389978E+02
 2.1113188E+00  4.9970169E+02
 2.1334269E+00  5.6370581E+02
 2.1555350E+00  6.3112964E+02
 2.1776431E+00  6.9436066E+02
 2.1997511E+00  7.4653461E+02
 2.2218592E+00  7.9184155E+02
 2.2439673E+00  8.3137048E+02
 2.2660751E+00  8.6774768E+02
 2.2881832E+00  9.0589600E+02
 2.3102913E+00  9.4013635E+02
 2.3323994E+00  9.7393451E+02
 2.3545074E+00  1.0064644E+03
 2.3766155E+00  1.0378711E+03
 2.3987236E+00  1.0707891E+03
 2.4208317E+00  1.1044307E+03
 2.4429398E+00  1.1368123E+03
 2.4650476E+00  1.1649084E+03
 2.4871557E+00  1.1963191E+03
 2.5092638E+00  1.2244540E+03
 2.5313718E+00  1.2502379E+03
 2.5534799E+00  1.2758613E+03
 2.5755880E+00  1.3022146E+03
 2.5976961E+00  1.3253481E+03
 2.6198041E+00  1.3506221E+03
 2.6419122E+00  1.3758990E+03
 2.6640201E+00  1.3983112E+03
 2.6861281E+00  1.4245048E+03
 2.7082362E+00  1.4483438E+03
 2.7303443E+00  1.4710233E+03
 2.7524524E+00  1.4943041E+03
 2.7745605E+00  1.5183252E+03
 2.7966685E+00  1.5405634E+03
 2.8187766E+00  1.5603536E+03
 2.8408844E+00  1.5782649E+03
 2.8629925E+00  1.5948163E+03
 2.8851006E+00  1.6166854E+03
 2.9072087E+00  1.6423409E+03
 2.9293168E+00  1.6603507E+03
 2.9514248E+00  1.6772386E+03
 2.9735329E+00  1.6931563E+03
 2.9956410E+00  1.7089957E+03
 3.0177491E+00  1.7268632E+03
 3.0398569E+00  1.7443876E+03
 3.0619650E+00  1.7591085E+03
 3.0840731E+00  1.7745808E+03
 3.1061811E+00  1.7893723E+03
 3.1282892E+00  1.8035972E+03
 3.1503973E+00  1.8169838E+03
 3.1725054E+00  1.8299609E+03
 3.1946135E+00  1.8430779E+03
 3.2167215E+00  1.8553639E+03
 3.2388294E+00  1.8679225E+03
 3.2609375E+00  1.8802661E+03
 3.2830455E+00  1.8921073E+03
 3.3051536E+00  1.9058643E+03
 3.3272617E+00  1.9152682E+03
 3.3493698E+00  1.9256992E+03
 3.3714778E+00  1.9373756E+03
 3.3935859E+00  1.9499395E+03
 3.4156940E+00  1.9597164E+03
 3.4378018E+00  1.9674956E+03
 3.4599099E+00  1.9780286E+03
 3.4820180E+00  1.9909202E+03
 3.5041261E+00  2.0047513E+03
 3.5262341E+00  2.0154264E+03
 3.5483422E+00  2.0258531E+03
 3.5704503E+00  2.0352933E+03
 3.5925584E+00  2.0433568E+03
 3.6146665E+00  2.0507617E+03
 3.6367743E+00  2.0600391E+03
 3.6588824E+00  2.0697571E+03
 3.6809905E+00  2.0775044E+03
 3.7030985E+00  2.0858081E+03
 3.7252066E+00  2.0928289E+03
 3.7473147E+00  2.0972397E+03
 3.7694228E+00  2.1023730E+03
 3.7915308E+00  2.1079829E+03
 3.8136389E+00  2.1178286E+03
 3.8357468E+00  2.1252544E+03
 3.8578548E+00  2.1294478E+03
 3.8799629E+00  2.1372493E+03
 3.9020710E+00  2.1476389E+03
 3.9241791E+00  2.1555002E+03
 3.9462872E+00  2.1600850E+03
 3.9683952E+00  2.1648220E+03
 3.9905033E+00  2.1723384E+03
 4.0126114E+00  2.1784177E+03
 4.0347195E+00  2.1861587E+03
 4.0568275E+00  2.1924871E+03
 4.0789356E+00  2.1955264E+03
 4.1010437E+00  2.1987039E+03
 4.1231513E+00  2.2021084E+03
 4.1452594E+00  2.2053464E+03
 4.1673675E+00  2.2075488E+03
 4.1894755E+00  2.2139910E+03
 4.2115836E+00  2.2190872E+03
 4.2336917E+00  2.2211267E+03
 4.2557998E+00  2.2217634E+03
 4.2779078E+00  2.2262556E+03
 4.3000159E+00  2.2301003E+03
 4.3221240E+00  2.2334395E+03
 4.3442321E+00  2.2385610E+03
 4.3663402E+00  2.2412881E+03
 4.3884482E+00  2.2409790E+03
 4.4105563E+00  2.2436331E+03
 4.4326644E+00  2.2469924E+03
 4.4547725E+00  2.2506731E+03
 4.4768806E+00  2.2545095E+03
 4.4989886E+00  2.2568442E+03
 4.5210962E+00  2.2578157E+03
 4.5432043E+00  2.2617815E+03
 4.5653124E+00  2.2639297E+03
 4.5874205E+00  2.2648130E+03
 4.6095285E+00  2.2664983E+03
 4.6316366E+00  2.2664692E+03
 4.6537447E+00  2.2670493E+03
 4.6758528E+00  2.2680757E+03
 4.6979609E+00  2.2714565E+03
 4.7200689E+00  2.2735303E+03
 4.7421770E+00  2.2729675E+03
 4.7642851E+00  2.2752761E+03
 4.7863932E+00  2.2744668E+03
 4.8085012E+00  2.2751313E+03
 4.8306093E+00  2.2762993E+03
 4.8527174E+00  2.2767043E+03
 4.8748255E+00  2.2781689E+03
 4.8969331E+00  2.2792852E+03
 4.9190412E+00  2.2809597E+03
 4.9411492E+00  2.2821938E+03
 4.9632573E+00  2.2825188E+03
 4.9853654E+00  2.2831060E+03
 5.0074735E+00  2.2806309E+03
 5.0295815E+00  2.2814470E+03
 5.0516896E+00  2.2831653E+03
 5.0737977E+00  2.2838889E+03
 5.0959058E+00  2.2847607E+03
 5.1180139E+00  2.2860432E+03
 5.1401219E+00  2.2861123E+03
 5.1622300E+00  2.2867493E+03
 5.1843381E+00  2.2874282E+03
 5.2064462E+00  2.2862937E+03
 5.2285542E+00  2.2843247E+03
 5.2506623E+00  2.2813601E+03
 5.2727704E+00  2.2805425E+03
 5.2948780E+00  2.2827429E+03
 5.3169861E+00  2.2830286E+03
 5.3390942E+00  2.2820615E+03
 5.3612022E+00  2.2823452E+03
 5.3833103E+00  2.2824702E+03
 5.4054184E+00  2.2826323E+03
 5.4275265E+00  2.2798516E+03
 5.4496346E+00  2.2792612E+03
 5.4717426E+00  2.2808015E+03
 5.4938507E+00  2.2824568E+03
 5.5159588E+00  2.2819963E+03
 5.5380669E+00  2.2815046E+03
 5.5601749E+00  2.2810671E+03
 5.5822830E+00  2.2788918E+03
 5.6043911E+00  2.2774573E+03
 5.6264992E+00  2.2787632E+03
 5.6486073E+00  2.2783652E+03
 5.6707153E+00  2.2762561E+03
 5.6928229E+00  2.2787805E+03
 5.7149310E+00  2.2820044E+03
 5.7370391E+00  2.2823757E+03
 5.7591472E+00  2.2807073E+03
 5.7812552E+00  2.2792686E+03
 5.8033633E+00  2.2773875E+03
 5.8254714E+00  2.2772632E+03
 5.8475795E+00  2.2777412E+03
 5.8696876E+00  2.2771848E+03
 5.8917956E+00  2.2755200E+03
 5.9139037E+00  2.2730754E+03
 5.9360118E+00  2.2725366E+03
 5.9581199E+00  2.2734626E+03
 5.9802279E+00  2.2725083E+03
 6.0023360E+00  2.2713232E+03
 6.0244441E+00  2.2728218E+03
 6.0465522E+00  2.2722493E+03
 6.0686603E+00  2.2703557E+03
 6.0907679E+00  2.2688818E+03
 6.1128759E+00  2.2665059E+03
 6.1349840E+00  2.2659136E+03
 6.1570921E+00  2.2659985E+03
 6.1792002E+00  2.2656724E+03
 6.2013083E+00  2.2659937E+03
 6.2234163E+00  2.2649724E+03
 6.2455244E+00  2.2642483E+03
 6.2676325E+00  2.2644983E+03
 6.2897406E+00  2.2648904E+03
 6.3118486E+00  2.2640703E+03
 6.3339567E+00  2.2626895E+03
 6.3560648E+00  2.2646509E+03
 6.3781729E+00  2.2691238E+03
 6.4002810E+00  2.2747249E+03
 6.4223890E+00  2.2752759E+03
 6.4444971E+00  2.2681162E+03
 6.4666047E+00  2.2622817E+03
 6.4887128E+00  2.2587375E+03
 6.5108209E+00  2.2607305E+03
 6.5329289E+00  2.2607920E+03
 6.5550370E+00  2.2584646E+03
 6.5771451E+00  2.2550269E+03
 6.5992532E+00  2.2530132E+03
 6.6213613E+00  2.2522346E+03
 6.6434693E+00  2.2506584E+03
 6.6655774E+00  2.2499089E+03
 6.6876855E+00  2.2506028E+03
 6.7097936E+00  2.2513379E+03
 6.7319016E+00  2.2507163E+03
 6.7540097E+00  2.2480068E+03
 6.7761178E+00  2.2457207E+03
 6.7982259E+00  2.2443135E+03
 6.8203340E+00  2.2425364E+03
 6.8424420E+00  2.2430024E+03
 6.8645496E+00  2.2428972E+03
 6.8866577E+00  2.2402957E+03
 6.9087658E+00  2.2382166E+03
 6.9308739E+00  2.2392407E+03
 6.9529819E+00  2.2399187E+03
 6.9750900E+00  2.2413689E+03
 6.9971981E+00  2.2410107E+03
 7.0193062E+00  2.2395928E+03
 7.0414143E+00  2.2380625E+03
 7.0635223E+00  2.2380476E+03
 7.0856304E+00  2.2357852E+03
 7.1077385E+00  2.2339487E+03
 7.1298466E+00  2.2323342E+03
 7.1519547E+00  2.2309563E+03
 7.1740627E+00  2.2291465E+03
 7.1961708E+00  2.2305554E+03
 7.2182789E+00  2.2339036E+03
 7.2403870E+00  2.2323840E+03
 7.2624946E+00  2.2281201E+03
 7.2846026E+00  2.2277786E+03
 7.3067107E+00  2.2272175E+03
 7.3288188E+00  2.2261206E+03
 7.3509269E+00  2.2260215E+03
 7.3730350E+00  2.2264851E+03
 7.3951430E+00  2.2264998E+03
 7.4172511E+00  2.2255801E+03
 7.4393592E+00  2.2264536E+03
 7.4614673E+00  2.2240471E+03
 7.4835753E+00  2.2217832E+03
 7.5056834E+00  2.2195808E+03
 7.5277915E+00  2.2212222E+03
 7.5498996E+00  2.2212510E+03
 7.5720077E+00  2.2199644E+03
 7.5941157E+00  2.2183413E+03
 7.6162238E+00  2.2170212E+03
 7.6383314E+00  2.2171938E+03
 7.6604395E+00  2.2195178E+03
 7.6825476E+00  2.2201431E+03
 7.7046556E+00  2.2198198E+03
 7.7267637E+00  2.2188987E+03
 7.7488718E+00  2.2177932E+03
 7.7709799E+00  2.2184163E+03
 7.7930880E+00  2.2179841E+03
 7.8151960E+00  2.2149387E+03
 7.8373041E+00  2.2126526E+03
 7.8594122E+00  2.2127324E+03
 7.8815203E+00  2.2128662E+03
 7.9036283E+00  2.2132136E+03
 7.9257364E+00  2.2137800E+03
 7.9478445E+00  2.2132451E+03
 7.9699526E+00  2.2121035E+03
 7.9920607E+00  2.2119287E+03
 8.0141687E+00  2.2110896E+03
 8.0362768E+00  2.2097112E+03
 8.0583849E+00  2.2086899E+03
 8.0804930E+00  2.2085674E+03
 8.1026011E+00  2.2100745E+03
 8.1247091E+00  2.2103022E+03
 8.1468172E+00  2.2091414E+03
 8.1689253E+00  2.2088538E+03
 8.1910334E+00  2.2089307E+03
 8.2131414E+00  2.2079758E+03
 8.2352486E+00  2.2071338E+03
 8.2573566E+00  2.2076592E+03
 8.2794647E+00  2.2076008E+03
 8.3015728E+00  2.2065222E+03
 8.3236809E+00  2.2067996E+03
 8.3457890E+00  2.2076003E+03
 8.3678970E+00  2.2090100E+03
 8.3900051E+00  2.2093564E+03
 8.4121132E+00  2.2081121E+03
 8.4342213E+00  2.2075708E+03
 8.4563293E+00  2.2100251E+03
 8.4784374E+00  2.2114836E+03
 8.5005455E+00  2.2112478E+03
 8.5226536E+00  2.2122512E+03
 8.5447617E+00  2.2154163E+03
 8.5668697E+00  2.2202803E+03
 8.5889778E+00  2.2237329E+03
 8.6110859E+00  2.2283142E+03
 8.6331940E+00  2.2360400E+03
 8.6553020E+00  2.2459150E+03
 8.6774101E+00  2.2548711E+03
 8.6995182E+00  2.2590854E+03
 8.7216263E+00  2.2568733E+03
 8.7437344E+00  2.2502744E+03
 8.7658424E+00  2.2410688E+03
 8.7879505E+00  2.2324038E+03
 8.8100586E+00  2.2267871E+03
 8.8321667E+00  2.2247458E+03
 8.8542747E+00  2.2217151E+03
 8.8763828E+00  2.2188076E+03
 8.8984909E+00  2.2159956E+03
 8.9205990E+00  2.2134221E+03
 8.9427071E+00  2.2150232E+03
 8.9648151E+00  2.2183918E+03
 8.9869232E+00  2.2279753E+03
 9.0090303E+00  2.2525708E+03
 9.0311384E+00  2.2788787E+03
 9.0532465E+00  2.2973169E+03
 9.0753546E+00  2.3061277E+03
 9.0974627E+00  2.2952246E+03
 9.1195707E+00  2.2617129E+03
 9.1416788E+00  2.2356572E+03
 9.1637869E+00  2.2238567E+03
 9.1858950E+00  2.2181602E+03
 9.2080030E+00  2.2145378E+03
 9.2301111E+00  2.2118076E+03
 9.2522192E+00  2.2112473E+03
 9.2743273E+00  2.2128838E+03
 9.2964354E+00  2.2131990E+03
 9.3185434E+00  2.2111475E+03
 9.3406515E+00  2.2086543E+03
 9.3627596E+00  2.2075364E+03
 9.3848677E+00  2.2091482E+03
 9.4069757E+00  2.2121201E+03
 9.4290838E+00  2.2136008E+03
 9.4511919E+00  2.2339917E+03
 9.4733000E+00  2.3048213E+03
 9.4954081E+00  2.3194519E+03
 9.5175161E+00  2.3270146E+03
 9.5396242E+00  2.3223433E+03
 9.5617323E+00  2.2418247E+03
 9.5838404E+00  2.2205291E+03
 9.6059484E+00  2.2202810E+03
 9.6280565E+00  2.2199658E+03
 9.6501646E+00  2.2179758E+03
 9.6722727E+00  2.2160818E+03
 9.6943808E+00  2.2161375E+03
 9.7164888E+00  2.2167075E+03
 9.7385969E+00  2.2178242E+03
 9.7607050E+00  2.2195596E+03
 9.7828131E+00  2.2218853E+03
 9.8049202E+00  2.2247751E+03
 9.8270283E+00  2.2281707E+03
 9.8491364E+00  2.2335012E+03
 9.8712444E+00  2.2404961E+03
 9.8933525E+00  2.2487739E+03
 9.9154606E+00  2.2562053E+03
 9.9375687E+00  2.2623406E+03
 9.9596767E+00  2.2693569E+03
 9.9817848E+00  2.2761655E+03
 1.0003893E+01  2.2845315E+03
 1.0026001E+01  2.2879214E+03
 1.0048109E+01  2.2835139E+03
 1.0070217E+01  2.2762507E+03
 1.0092325E+01  2.2705879E+03
 1.0114433E+01  2.2721360E+03
 1.0136541E+01  2.2749675E+03
 1.0158649E+01  2.2682822E+03
 1.0180758E+01  2.2546506E+03
 1.0202866E+01  2.2427488E+03
 1.0224974E+01  2.2358044E+03
 1.0247082E+01  2.2327524E+03
 1.0269190E+01  2.2338384E+03
 1.0291298E+01  2.2356106E+03
 1.0313406E+01  2.2352734E+03
 1.0335514E+01  2.2338872E+03
 1.0357622E+01  2.2329878E+03
 1.0379730E+01  2.2342288E+03
 1.0401838E+01  2.2369209E+03
 1.0423946E+01  2.2377224E+03
 1.0446054E+01  2.2376357E+03
 1.0468163E+01  2.2405613E+03
 1.0490271E+01  2.2450674E+03
 1.0512379E+01  2.2530894E+03
 1.0534487E+01  2.3027363E+03
 1.0556595E+01  2.3360984E+03
 1.0578702E+01  2.3104177E+03
 1.0600810E+01  2.2724934E+03
 1.0622918E+01  2.2632808E+03
 1.0645026E+01  2.2630527E+03
 1.0667134E+01  2.2646729E+03
 1.0689242E+01  2.2672986E+03
 1.0711350E+01  2.2703633E+03
 1.0733459E+01  2.2726841E+03
 1.0755567E+01  2.2756372E+03
 1.0777675E+01  2.2800554E+03
 1.0799783E+01  2.2812373E+03
 1.0821891E+01  2.2842607E+03
 1.0843999E+01  2.2880420E+03
 1.0866107E+01  2.3049609E+03
 1.0888215E+01  2.3936965E+03
 1.0910323E+01  2.4879690E+03
 1.0932431E+01  2.5310762E+03
 1.0954539E+01  2.6342742E+03
 1.0976647E+01  2.8230557E+03
 1.0998755E+01  3.0890759E+03
 1.1020864E+01  3.4137527E+03
 1.1042972E+01  3.6849014E+03
 1.1065080E+01  3.8965144E+03
 1.1087188E+01  4.0484631E+03
 1.1109296E+01  4.0643984E+03
 1.1131404E+01  3.9351001E+03
 1.1153512E+01  3.5875662E+03
 1.1175620E+01  3.2121152E+03
 1.1197728E+01  2.9341357E+03
 1.1219836E+01  2.7566487E+03
 1.1241944E+01  2.5902437E+03
 1.1264052E+01  2.4638547E+03
 1.1286160E+01  2.3872329E+03
 1.1308269E+01  2.3366650E+03
 1.1330377E+01  2.3213779E+03
 1.1352485E+01  2.3124458E+03
 1.1374592E+01  2.3071868E+03
 1.1396700E+01  2.3040361E+03
 1.1418808E+01  2.3013716E+03
 1.1440916E+01  2.2996545E+03
 1.1463024E+01  2.2994167E+03
 1.1485132E+01  2.3023948E+03
 1.1507240E+01  2.3061375E+03
 1.1529348E+01  2.3099717E+03
 1.1551456E+01  2.3155923E+03
 1.1573565E+01  2.3214910E+03
 1.1595673E+01  2.3306460E+03
 1.1617781E+01  2.3461492E+03
 1.1639889E+01  2.3631321E+03
 1.1661997E+01  2.3788193E+03
 1.1684105E+01  2.3980781E+03
 1.1706213E+01  2.4173562E+03
 1.1728321E+01  2.4324949E+03
 1.1750429E+01  2.4462668E+03
 1.1772537E+01  2.4548203E+03
 1.1794645E+01  2.4487256E+03
 1.1816753E+01  2.4298545E+03
 1.1838861E+01  2.4068232E+03
 1.1860970E+01  2.3975415E+03
 1.1883078E+01  2.4259526E+03
 1.1905186E+01  2.4076096E+03
 1.1927294E+01  2.3467827E+03
 1.1949402E+01  2.3175066E+03
 1.1971510E+01  2.3106753E+03
 1.1993618E+01  2.3084106E+03
 1.2015726E+01  2.3060552E+03
 1.2037834E+01  2.3039910E+03
 1.2059942E+01  2.3039114E+03
 1.2082050E+01  2.3041675E+03
 1.2104158E+01  2.3052761E+03
 1.2126266E+01  2.3068904E+03
 1.2148374E+01  2.3096208E+03
 1.2170482E+01  2.3113445E+03
 1.2192590E+01  2.3129961E+03
 1.2214698E+01  2.3150762E+03
 1.2236806E+01  2.3190918E+03
 1.2258914E+01  2.3237454E+03
 1.2281022E+01  2.3307834E+03
 1.2303130E+01  2.3404036E+03
 1.2325238E+01  2.3507327E+03
 1.2347346E+01  2.3617295E+03
 1.2369454E+01  2.3765554E+03
 1.2391562E+01  2.3916567E+03
 1.2413671E+01  2.4019814E+03
 1.2435779E+01  2.4015989E+03
 1.2457887E+01  2.3910181E+03
 1.2479995E+01  2.3788457E+03
 1.2502103E+01  2.3708005E+03
 1.2524211E+01  2.3670591E+03
 1.2546319E+01  2.3659387E+03
 1.2568427E+01  2.3653115E+03
 1.2590535E+01  2.3696077E+03
 1.2612643E+01  2.3774805E+03
 1.2634751E+01  2.3869590E+03
 1.2656859E+01  2.4013884E+03
 1.2678967E+01  2.4231301E+03
 1.2701076E+01  2.4667729E+03
 1.2723184E+01  2.5286157E+03
 1.2745292E+01  2.5721306E+03
 1.2767400E+01  2.6020701E+03
 1.2789508E+01  2.6496243E+03
 1.2811616E+01  2.7161597E+03
 1.2833724E+01  2.7961345E+03
 1.2855832E+01  2.8001836E+03
 1.2877940E+01  2.6936013E+03
 1.2900048E+01  2.5420029E+03
 1.2922156E+01  2.4563406E+03
 1.2944263E+01  2.4085757E+03
 1.2966372E+01  2.3837563E+03
 1.2988480E+01  2.3689319E+03
 1.3010588E+01  2.3615178E+03
 1.3032696E+01  2.3584290E+03
 1.3054804E+01  2.3566042E+03
 1.3076912E+01  2.3545803E+03
 1.3099020E+01  2.3521672E+03
 1.3121128E+01  2.3501277E+03
 1.3143236E+01  2.3498101E+03
 1.3165344E+01  2.3505774E+03
 1.3187452E+01  2.3505540E+03
 1.3209560E+01  2.3505701E+03
 1.3231668E+01  2.3508999E+03
 1.3253777E+01  2.3514910E+03
 1.3275885E+01  2.3532852E+03
 1.3297993E+01  2.3539639E+03
 1.3320101E+01  2.3541448E+03
 1.3342209E+01  2.3551255E+03
 1.3364317E+01  2.3541423E+03
 1.3386425E+01  2.3523687E+03
 1.3408533E+01  2.3494236E+03
 1.3430641E+01  2.3492007E+03
 1.3452749E+01  2.3505728E+03
 1.3474857E+01  2.3504133E+03
 1.3496965E+01  2.3480271E+03
 1.3519073E+01  2.3457117E+03
 1.3541182E+01  2.3457891E+03
 1.3563290E+01  2.3457461E+03
 1.3585398E+01  2.3436230E+03
 1.3607506E+01  2.3435249E+03
 1.3629614E+01  2.3433962E+03
 1.3651722E+01  2.3446484E+03
 1.3673830E+01  2.3464561E+03
 1.3695938E+01  2.3484424E+03
 1.3718045E+01  2.3510276E+03
 1.3740153E+01  2.3552095E+03
 1.3762261E+01  2.3605144E+03
 1.3784369E+01  2.3661990E+03
 1.3806478E+01  2.3711360E+03
 1.3828586E+01  2.3774827E+03
 1.3850694E+01  2.3849600E+03
 1.3872802E+01  2.3925244E+03
 1.3894910E+01  2.4013142E+03
 1.3917018E+01  2.4094023E+03
 1.3939126E+01  2.4121008E+03
 1.3961234E+01  2.4130767E+03
 1.3983342E+01  2.4111440E+03
 1.4005450E+01  2.4062280E+03
 1.4027558E+01  2.4006392E+03
 1.4049666E+01  2.3955176E+03
 1.4071774E+01  2.3895652E+03
 1.4093883E+01  2.3833352E+03
 1.4115991E+01  2.3777202E+03
 1.4138099E+01  2.3749133E+03
 1.4160207E+01  2.3714978E+03
 1.4182315E+01  2.3683982E+03
 1.4204423E+01  2.3693899E+03
 1.4226531E+01  2.3718511E+03
 1.4248639E+01  2.3811890E+03
 1.4270747E+01  2.3940798E+03
 1.4292855E+01  2.4011050E+03
 1.4314963E+01  2.3969421E+03
 1.4337071E+01  2.3878372E+03
 1.4359179E+01  2.3845122E+03
 1.4381288E+01  2.3841050E+03
 1.4403396E+01  2.3822151E+03
 1.4425504E+01  2.3765083E+03
 1.4447612E+01  2.3719736E+03
 1.4469720E+01  2.3696489E+03
 1.4491827E+01  2.3690986E+03
 1.4513935E+01  2.3678486E+03
 1.4536043E+01  2.3666985E+03
 1.4558151E+01  2.3676323E+03
 1.4580259E+01  2.3678306E+03
 1.4602367E+01  2.3684038E+03
 1.4624475E+01  2.3686897E+03
 1.4646584E+01  2.3683096E+03
 1.4668692E+01  2.3691494E+03
 1.4690800E+01  2.3703289E+03
 1.4712908E+01  2.3723452E+03
 1.4735016E+01  2.3716387E+03
 1.4757124E+01  2.3721323E+03
 1.4779232E+01  2.3737241E+03
 1.4801340E+01  2.3744399E+03
 1.4823448E+01  2.3745742E+03
 1.4845556E+01  2.3748711E+03
 1.4867664E+01  2.3747395E+03
 1.4889772E+01  2.3740129E+03
 1.4911880E+01  2.3743301E+03
 1.4933989E+01  2.3766082E+03
 1.4956097E+01  2.3784087E+03
 1.4978205E+01  2.3780459E+03
 1.5000313E+01  2.3793906E+03
 1.5022421E+01  2.3812903E+03
 1.5044529E+01  2.3822686E+03
 1.5066637E+01  2.3829458E+03
 1.5088745E+01  2.3836023E+03
 1.5110853E+01  2.3841318E+03
 1.5132961E+01  2.3852156E+03
 1.5155069E+01  2.3852673E+03
 1.5177177E+01  2.3849822E+03
 1.5199286E+01  2.3851365E+03
 1.5221394E+01  2.3851548E+03
 1.5243502E+01  2.3865891E+03
 1.5265610E+01  2.3876636E+03
 1.5287717E+01  2.3878450E+03
 1.5309825E+01  2.3887244E+03
 1.5331933E+01  2.3893140E+03
 1.5354041E+01  2.3911577E+03
 1.5376149E+01  2.3942871E+03
 1.5398257E+01  2.3954578E+03
 1.5420365E+01  2.3962769E+03
 1.5442473E+01  2.3963123E+03
 1.5464581E+01  2.3968674E+03
 1.5486690E+01  2.4004985E+03
 1.5508798E+01  2.4045112E+03
 1.5530906E+01  2.4064736E+03
 1.5553014E+01  2.4094885E+03
 1.5575122E+01  2.4146360E+03
 1.5597230E+01  2.4205996E+03
 1.5619338E+01  2.4279595E+03
 1.5641446E+01  2.4333215E+03
 1.5663554E+01  2.4358750E+03
 1.5685662E+01  2.4342297E+03
 1.5707770E+01  2.4302666E+03
 1.5729878E+01  2.4281331E+03
 1.5751987E+01  2.4279641E+03
 1.5774095E+01  2.4278062E+03
 1.5796203E+01  2.4265325E+03
 1.5818311E+01  2.4281445E+03
 1.5840419E+01  2.4292568E+03
 1.5862527E+01  2.4305044E+03
 1.5884635E+01  2.4310120E+03
 1.5906743E+01  2.4334043E+03
 1.5928851E+01  2.4352383E+03
 1.5950959E+01  2.4352209E+03
 1.5973067E+01  2.4347786E+03
 1.5995175E+01  2.4324485E+03
 1.6017282E+01  2.4290398E+03
 1.6039391E+01  2.4251831E+03
 1.6061499E+01  2.4204082E+03
 1.6083607E+01  2.4158982E+03
 1.6105715E+01  2.4136274E+03
 1.6127823E+01  2.4121289E+03
 1.6149931E+01  2.4093755E+03
 1.6172039E+01  2.4094014E+03
 1.6194147E+01  2.4103613E+03
 1.6216255E+01  2.4094041E+03
 1.6238363E+01  2.4105303E+03
 1.6260471E+01  2.4098342E+03
 1.6282579E+01  2.4077971E+03
 1.6304688E+01  2.4069431E+03
 1.6326796E+01  2.4056521E+03
 1.6348904E+01  2.4048125E+03
 1.6371012E+01  2.4044082E+03
 1.6393120E+01  2.4045679E+03
 1.6415228E+01  2.4055310E+03
 1.6437336E+01  2.4061062E+03
 1.6459444E+01  2.4049233E+03
 1.6481552E+01  2.4034644E+03
 1.6503660E+01  2.4032739E+03
 1.6525768E+01  2.4032517E+03
 1.6547876E+01  2.4032791E+03
 1.6569984E+01  2.4015676E+03
 1.6592093E+01  2.4001714E+03
 1.6614201E+01  2.4010393E+03
 1.6636309E+01  2.4028057E+03
 1.6658417E+01  2.4029265E+03
 1.6680525E+01  2.4023809E+03
 1.6702633E+01  2.4020991E+03
 1.6724741E+01  2.4013748E+03
 1.6746849E+01  2.4006863E+03
 1.6768957E+01  2.3984495E+03
 1.6791065E+01  2.3983394E+03
 1.6813173E+01  2.3971313E+03
 1.6835281E+01  2.3952063E+03
 1.6857389E+01  2.3952642E+03
 1.6879498E+01  2.3936165E+03
 1.6901606E+01  2.3930747E+03
 1.6923714E+01  2.3922126E+03
 1.6945822E+01  2.3914963E+03
 1.6967930E+01  2.3908081E+03
 1.6990038E+01  2.3909866E+03
 1.7012146E+01  2.3904995E+03
 1.7034254E+01  2.3905911E+03
 1.7056362E+01  2.3907876E+03
 1.7078470E+01  2.3905862E+03
 1.7100578E+01  2.3920859E+03
 1.7122686E+01  2.3937751E+03
 1.7144794E+01  2.3938462E+03
 1.7166903E+01  2.3933491E+03
 1.7189011E+01  2.3955549E+03
 1.7211119E+01  2.3981016E+03
 1.7233225E+01  2.4016990E+03
 1.7255333E+01  2.4040508E+03
 1.7277441E+01  2.4104641E+03
 1.7299549E+01  2.4188350E+03
 1.7321657E+01  2.4278699E+03
 1.7343765E+01  2.4348289E+03
 1.7365873E+01  2.4402957E+03
 1.7387981E+01  2.4442532E+03
 1.7410089E+01  2.4436431E+03
 1.7432198E+01  2.4387395E+03
 1.7454306E+01  2.4344050E+03
 1.7476414E+01  2.4298005E+03
 1.7498522E+01  2.4256506E+03
 1.7520630E+01  2.4216985E+03
 1.7542738E+01  2.4160220E+03
 1.7564846E+01  2.4061018E+03
 1.7586954E+01  2.3963960E+03
 1.7609062E+01  2.3896294E+03
 1.7631170E+01  2.3853638E+03
 1.7653278E+01  2.3816392E+03
 1.7675386E+01  2.3772517E+03
 1.7697495E+01  2.3751001E+03
 1.7719603E+01  2.3733816E+03
 1.7741711E+01  2.3704539E+03
 1.7763819E+01  2.3690757E+03
 1.7785927E+01  2.3673892E+03
 1.7808035E+01  2.3675552E+03
 1.7830143E+01  2.3671577E+03
 1.7852251E+01  2.3658167E+03
 1.7874359E+01  2.3671985E+03
 1.7896467E+01  2.3670710E+03
 1.7918575E+01  2.3674744E+03
 1.7940683E+01  2.3678008E+03
 1.7962791E+01  2.3672256E+03
 1.7984900E+01  2.3692681E+03
 1.8007008E+01  2.3734531E+03
 1.8029116E+01  2.3800454E+03
 1.8051224E+01  2.3916650E+03
 1.8073332E+01  2.4121873E+03
 1.8095440E+01  2.4428474E+03
 1.8117548E+01  2.4794326E+03
 1.8139656E+01  2.5195076E+03
 1.8161764E+01  2.5432903E+03
 1.8183872E+01  2.5346125E+03
 1.8205980E+01  2.4963887E+03
 1.8228088E+01  2.4515713E+03
 1.8250196E+01  2.4180354E+03
 1.8272305E+01  2.3935479E+03
 1.8294413E+01  2.3738259E+03
 1.8316521E+01  2.3594031E+03
 1.8338629E+01  2.3496104E+03
 1.8360737E+01  2.3405476E+03
 1.8382845E+01  2.3330388E+03
 1.8404953E+01  2.3253401E+03
 1.8427061E+01  2.3172441E+03
 1.8449169E+01  2.3115747E+03
 1.8471277E+01  2.3072729E+03
 1.8493385E+01  2.3028740E+03
 1.8515493E+01  2.3004141E+03
 1.8537601E+01  2.2964214E+03
 1.8559710E+01  2.2934487E+03
 1.8581818E+01  2.2904641E+03
 1.8603926E+01  2.2885596E+03
 1.8626034E+01  2.2886428E+03
 1.8648142E+01  2.2898752E+03
 1.8670250E+01  2.2910867E+03
 1.8692358E+01  2.2898210E+03
 1.8714466E+01  2.2857017E+03
 1.8736574E+01  2.2812598E+03
 1.8758682E+01  2.2764443E+03
 1.8780790E+01  2.2742583E+03
 1.8802896E+01  2.2737649E+03
 1.8825005E+01  2.2740496E+03
 1.8847113E+01  2.2726345E+03
 1.8869221E+01  2.2705444E+03
 1.8891329E+01  2.2671824E+03
 1.8913437E+01  2.2671653E+03
 1.8935545E+01  2.2655532E+03
 1.8957653E+01  2.2594055E+03
 1.8979761E+01  2.2533850E+03
 1.9001869E+01  2.2497827E+03
 1.9023977E+01  2.2445076E+03
 1.9046085E+01  2.2384822E+03
 1.9068193E+01  2.2340171E+03
 1.9090302E+01  2.2285986E+03
 1.9112410E+01  2.2246921E+03
 1.9134518E+01  2.2209661E+03
 1.9156626E+01  2.2170105E+03
 1.9178734E+01  2.2151167E+03
 1.9200842E+01  2.2141162E+03
 1.9222950E+01  2.2148564E+03
 1.9245058E+01  2.2140737E+03
 1.9267166E+01  2.2128208E+03
 1.9289274E+01  2.2109895E+03
 1.9311382E+01  2.2100452E+03
 1.9333490E+01  2.2062747E+03
 1.9355598E+01  2.2002341E+03
 1.9377707E+01  2.1955479E+03
 1.9399815E+01  2.1915798E+03
 1.9421923E+01  2.1884690E+03
 1.9444031E+01  2.1846899E+03
 1.9466139E+01  2.1810762E+03
 1.9488247E+01  2.1804705E+03
 1.9510355E+01  2.1774414E+03
 1.9532463E+01  2.1739453E+03
 1.9554571E+01  2.1705032E+03
 1.9576679E+01  2.1685686E+03
 1.9598787E+01  2.1660420E+03
 1.9620895E+01  2.1633057E+03
 1.9643003E+01  2.1615100E+03
 1.9665112E+01  2.1595481E+03
 1.9687220E+01  2.1571772E+03
 1.9709328E+01  2.1533237E+03
 1.9731436E+01  2.1494651E+03
 1.9753544E+01  2.1482202E+03
 1.9775652E+01  2.1471787E+03
 1.9797760E+01  2.1453401E+03
 1.9819868E+01  2.1428088E+03
 1.9841976E+01  2.1401123E+03
 1.9864084E+01  2.1374690E+03
 1.9886192E+01  2.1366289E+03
 1.9908300E+01  2.1351025E+03
 1.9930408E+01  2.1325737E+03
 1.9952517E+01  2.1319551E+03
 1.9974625E+01  2.1307585E+03
 1.9996733E+01  2.1287419E+03
 2.0018841E+01  2.1256555E+03
 2.0040949E+01  2.1242764E+03
 2.0063057E+01  2.1237871E+03
 2.0085165E+01  2.1212334E+03
 2.0107273E+01  2.1194019E+03
 2.0129381E+01  2.1201138E+03
 2.0151489E+01  2.1205652E+03
 2.0173597E+01  2.1202473E+03
 2.0195705E+01  2.1193184E+03
 2.0217813E+01  2.1181606E+03
 2.0239922E+01  2.1171721E+03
 2.0262030E+01  2.1162493E+03
 2.0284138E+01  2.1153193E+03
 2.0306246E+01  2.1133574E+03
 2.0328354E+01  2.1115315E+03
 2.0350462E+01  2.1149922E+03
 2.0372568E+01  2.1227004E+03
 2.0394676E+01  2.1384172E+03
 2.0416784E+01  2.1575442E+03
 2.0438892E+01  2.1539299E+03
 2.0461000E+01  2.1322441E+03
 2.0483109E+01  2.1033921E+03
 2.0505217E+01  2.0949395E+03
 2.0527325E+01  2.0889595E+03
 2.0549433E+01  2.0837871E+03
 2.0571541E+01  2.0801824E+03
 2.0593649E+01  2.0783704E+03
 2.0615757E+01  2.0766377E+03
 2.0637865E+01  2.0739263E+03
 2.0659973E+01  2.0718347E+03
 2.0682081E+01  2.0704626E+03
 2.0704189E+01  2.0694485E+03
 2.0726297E+01  2.0671389E+03
 2.0748405E+01  2.0646062E+03
 2.0770514E+01  2.0630913E+03
 2.0792622E+01  2.0618235E+03
 2.0814730E+01  2.0608501E+03
 2.0836838E+01  2.0598076E+03
 2.0858946E+01  2.0581238E+03
 2.0881054E+01  2.0566785E+03
 2.0903162E+01  2.0578887E+03
 2.0925270E+01  2.0595781E+03
 2.0947378E+01  2.0599810E+03
 2.0969486E+01  2.0605667E+03
 2.0991594E+01  2.0622261E+03
 2.1013702E+01  2.0641470E+03
 2.1035810E+01  2.0663445E+03
 2.1057919E+01  2.0705779E+03
 2.1080027E+01  2.0777385E+03
 2.1102135E+01  2.0839844E+03
 2.1124243E+01  2.0911807E+03
 2.1146351E+01  2.1009248E+03
 2.1168459E+01  2.1093586E+03
 2.1190567E+01  2.1181453E+03
 2.1212675E+01  2.1341675E+03
 2.1234783E+01  2.1500347E+03
 2.1256891E+01  2.1599849E+03
 2.1278999E+01  2.1752786E+03
 2.1301107E+01  2.2115859E+03
 2.1323215E+01  2.2644790E+03
 2.1345324E+01  2.3341760E+03
 2.1367432E+01  2.3411841E+03
 2.1389540E+01  2.2931960E+03
 2.1411648E+01  2.2098862E+03
 2.1433756E+01  2.1572905E+03
 2.1455864E+01  2.1170786E+03
 2.1477972E+01  2.0893955E+03
 2.1500080E+01  2.0681453E+03
 2.1522188E+01  2.0510959E+03
 2.1544296E+01  2.0382899E+03
 2.1566404E+01  2.0290740E+03
 2.1588512E+01  2.0205232E+03
 2.1610620E+01  2.0123120E+03
 2.1632729E+01  2.0067410E+03
 2.1654837E+01  2.0035256E+03
 2.1676945E+01  2.0000398E+03
 2.1699053E+01  1.9960289E+03
 2.1721161E+01  1.9921162E+03
 2.1743269E+01  1.9899218E+03
 2.1765377E+01  1.9869552E+03
 2.1787485E+01  1.9852878E+03
 2.1809593E+01  1.9837728E+03
 2.1831701E+01  1.9822797E+03
 2.1853809E+01  1.9804987E+03
 2.1875917E+01  1.9772352E+03
 2.1898026E+01  1.9741511E+03
 2.1920134E+01  1.9726403E+03
 2.1942240E+01  1.9712009E+03
 2.1964348E+01  1.9682520E+03
 2.1986456E+01  1.9672986E+03
 2.2008564E+01  1.9657590E+03
 2.2030672E+01  1.9642474E+03
 2.2052780E+01  1.9636976E+03
 2.2074888E+01  1.9616501E+03
 2.2096996E+01  1.9590487E+03
 2.2119104E+01  1.9584021E+03
 2.2141212E+01  1.9582822E+03
 2.2163321E+01  1.9575779E+03
 2.2185429E+01  1.9579600E+03
 2.2207537E+01  1.9585945E+03
 2.2229645E+01  1.9587377E+03
 2.2251753E+01  1.9591958E+03
 2.2273861E+01  1.9605548E+03
 2.2295969E+01  1.9634131E+03
 2.2318077E+01  1.9670184E+03
 2.2340185E+01  1.9628047E+03
 2.2362293E+01  1.9569716E+03
 2.2384401E+01  1.9494827E+03
 2.2406509E+01  1.9421410E+03
 2.2428617E+01  1.9361422E+03
 2.2450726E+01  1.9335790E+03
 2.2472834E+01  1.9300347E+03
 2.2494942E+01  1.9263723E+03
 2.2517050E+01  1.9236831E+03
 2.2539158E+01  1.9223779E+03
 2.2561266E+01  1.9200493E+03
 2.2583374E+01  1.9187848E+03
 2.2605482E+01  1.9176752E+03
 2.2627590E+01  1.9149003E+03
 2.2649698E+01  1.9125739E+03
 2.2671806E+01  1.9112052E+03
 2.2693914E+01  1.9093665E+03
 2.2716022E+01  1.9076985E+03
 2.2738131E+01  1.9057959E+03
 2.2760239E+01  1.9031533E+03
 2.2782347E+01  1.9008074E+03
 2.2804455E+01  1.8997626E+03
 2.2826563E+01  1.8996830E+03
 2.2848671E+01  1.8958376E+03
 2.2870779E+01  1.8953613E+03
 2.2892887E+01  1.8932090E+03
 2.2914995E+01  1.8889030E+03
 2.2937103E+01  1.8854348E+03
 2.2959211E+01  1.8861655E+03
 2.2981319E+01  1.8824192E+03
 2.3003428E+01  1.8814448E+03
 2.3025536E+01  1.8789076E+03
 2.3047644E+01  1.8759049E+03
 2.3069752E+01  1.8752407E+03
 2.3091860E+01  1.8745680E+03
 2.3113968E+01  1.8709336E+03
 2.3136076E+01  1.8378654E+03
 2.3158184E+01  1.7326741E+03
 2.3180292E+01  1.6333776E+03
 2.3202400E+01  1.5621349E+03
 2.3224508E+01  1.5202445E+03
 2.3246616E+01  1.4804515E+03
 2.3268724E+01  1.4352842E+03
 2.3290833E+01  1.3924382E+03
 2.3312941E+01  1.3811135E+03
 2.3335049E+01  1.3603069E+03
 2.3357157E+01  1.3373743E+03
 2.3379265E+01  1.3135209E+03
 2.3401373E+01  1.2935184E+03
 2.3423481E+01  1.2709705E+03
 2.3445589E+01  1.2517401E+03
 2.3467697E+01  1.2338430E+03
 2.3489805E+01  1.2156025E+03
 2.3511911E+01  1.2006899E+03
 2.3534019E+01  1.2013577E+03
 2.3556128E+01  1.1936626E+03
 2.3578236E+01  1.1877240E+03
 2.3600344E+01  1.1793220E+03
 2.3622452E+01  1.1726520E+03
 2.3644560E+01  1.1633016E+03
 2.3666668E+01  1.1560219E+03
 2.3688776E+01  1.1463739E+03
 2.3710884E+01  1.1405729E+03
 2.3732992E+01  1.1329471E+03
 2.3755100E+01  1.1279105E+03
 2.3777208E+01  1.1244324E+03
 2.3799316E+01  1.1218904E+03
 2.3821424E+01  1.1182539E+03
 2.3843533E+01  1.1157778E+03
 2.3865641E+01  1.1163679E+03
 2.3887749E+01  1.1140219E+03
 2.3909857E+01  1.1142662E+03
 2.3931965E+01  1.1133533E+03
 2.3954073E+01  1.1134879E+03
 2.3976181E+01  1.1133413E+03
 2.3998289E+01  1.1133494E+03
 2.4020397E+01  1.1114352E+03
 2.4042505E+01  1.1109932E+03
 2.4064613E+01  1.1066508E+03
 2.4086721E+01  1.1053666E+03
 2.4108829E+01  1.1007510E+03
 2.4130938E+01  1.0931449E+03
 2.4153046E+01  1.0856317E+03
 2.4175154E+01  1.0741145E+03
 2.4197262E+01  1.0618826E+03
 2.4219370E+01  1.0498289E+03
 2.4241478E+01  1.0350614E+03
 2.4263586E+01  1.0211836E+03
 2.4285694E+01  1.0071902E+03
 2.4307802E+01  9.9132654E+02
 2.4329910E+01  9.7430548E+02
 2.4352018E+01  9.5610223E+02
 2.4374126E+01  9.3598456E+02
 2.4396235E+01  9.1372961E+02
 2.4418343E+01  8.9105402E+02
 2.4440451E+01  8.7799445E+02
 2.4462559E+01  8.5524371E+02
 2.4484667E+01  8.2730939E+02
 2.4506775E+01  8.0289923E+02
 2.4528883E+01  7.6615619E+02
 2.4550991E+01  7.3897070E+02
 2.4573099E+01  6.8916589E+02
 2.4595207E+01  6.4391406E+02
 2.4617315E+01  5.8896942E+02
 2.4639423E+01  5.5230652E+02
 2.4661531E+01  5.0982007E+02
 2.4683640E+01  4.5387097E+02
 2.4705748E+01  3.8202396E+02
 2.4727856E+01  2.9104410E+02
 2.4749964E+01  1.4574423E+02
 2.4772072E+01  2.5243917E+01
 2.4794180E+01  3.9065801E-02
 2.4816288E+01  0.0000000E+00
 2.4838396E+01  0.0000000E+00
 2.4860504E+01  0.0000000E+00
 2.4882612E+01  0.0000000E+00
 2.4904720E+01  0.0000000E+00
 2.4926828E+01  0.0000000E+00
 2.4948936E+01  0.0000000E+00
 2.4971045E+01  0.0000000E+00
 2.4993153E+01  0.0000000E+00
 2.5015261E+01  0.0000000E+00
 2.5037369E+01  0.0000000E+00
 2.5059477E+01  0.0000000E+00
 2.5081583E+01  0.0000000E+00
 2.5103691E+01  0.0000000E+00
 2.5125799E+01  0.0000000E+00
 2.5147907E+01  0.0000000E+00
 2.5170015E+01  0.0000000E+00
 2.5192123E+01  0.0000000E+00
 2.5214231E+01  0.0000000E+00
 2.5236340E+01  0.0000000E+00
 2.5258448E+01  0.0000000E+00
 2.5280556E+01  0.0000000E+00
 2.5302664E+01  0.0000000E+00
 2.5324772E+01  0.0000000E+00
 2.5346880E+01  0.0000000E+00
 2.5368988E+01  0.0000000E+00
 2.5391096E+01  0.0000000E+00
 2.5413204E+01  0.0000000E+00
 2.5435312E+01  0.0000000E+00
 2.5457420E+01  0.0000000E+00
 2.5479528E+01  0.0000000E+00
 2.5501637E+01  0.0000000E+00
 2.5523745E+01  0.0000000E+00
 2.5545853E+01  0.0000000E+00
 2.5567961E+01  0.0000000E+00
 2.5590069E+01  0.0000000E+00
 2.5612177E+01  0.0000000E+00
 2.5634285E+01  0.0000000E+00
 2.5656393E+01  0.0000000E+00
 2.5678501E+01  0.0000000E+00
 2.5700609E+01  0.0000000E+00
 2.5722717E+01  0.0000000E+00
 2.5744825E+01  0.0000000E+00
 2.5766933E+01  0.0000000E+00
 2.5789042E+01  0.0000000E+00
 2.5811150E+01  0.0000000E+00
 2.5833258E+01  0.0000000E+00
 2.5855366E+01  0.0000000E+00
 2.5877474E+01  0.0000000E+00
 2.5899582E+01  0.0000000E+00
 2.5921690E+01  0.0000000E+00
 2.5943798E+01  0.0000000E+00
 2.5965906E+01  0.0000000E+00
 2.5988014E+01  0.0000000E+00
 2.6010122E+01  0.0000000E+00
 2.6032230E+01  0.0000000E+00
 2.6054338E+01  0.0000000E+00
 2.6076447E+01  0.0000000E+00
 2.6098555E+01  0.0000000E+00
 2.6120663E+01  0.0000000E+00
 2.6142771E+01  0.0000000E+00
 2.6164879E+01  0.0000000E+00
 2.6186987E+01  0.0000000E+00
 2.6209095E+01  0.0000000E+00
 2.6231203E+01  0.0000000E+00
 2.6253311E+01  0.0000000E+00
 2.6275419E+01  0.0000000E+00
 2.6297527E+01  0.0000000E+00
 2.6319635E+01  0.0000000E+00
 2.6341743E+01  0.0000000E+00
 2.6363852E+01  0.0000000E+00
 2.6385960E+01  0.0000000E+00
 2.6408068E+01  0.0000000E+00
 2.6430176E+01  0.0000000E+00
 2.6452284E+01  0.0000000E+00
 2.6474392E+01  0.0000000E+00
 2.6496500E+01  0.0000000E+00
 2.6518608E+01  0.0000000E+00
 2.6540716E+01  0.0000000E+00
 2.6562824E+01  0.0000000E+00
 2.6584932E+01  0.0000000E+00
 2.6607040E+01  0.0000000E+00
 2.6629147E+01  0.0000000E+00
 2.6651255E+01  0.0000000E+00
 2.6673363E+01  0.0000000E+00
 2.6695471E+01  0.0000000E+00
 2.6717579E+01  0.0000000E+00
 2.6739687E+01  0.0000000E+00
 2.6761795E+01  0.0000000E+00
 2.6783903E+01  0.0000000E+00
 2.6806011E+01  0.0000000E+00
 2.6828119E+01  0.0000000E+00
 2.6850227E+01  0.0000000E+00
 2.6872335E+01  0.0000000E+00
 2.6894444E+01  0.0000000E+00
 2.6916552E+01  0.0000000E+00
 2.6938660E+01  0.0000000E+00
 2.6960768E+01  0.0000000E+00
 2.6982876E+01  0.0000000E+00
 2.7004984E+01  0.0000000E+00
 2.7027092E+01  0.0000000E+00
 2.7049200E+01  0.0000000E+00
 2.7071308E+01  0.0000000E+00
 2.7093416E+01  0.0000000E+00
 2.7115524E+01  0.0000000E+00
 2.7137632E+01  0.0000000E+00
 2.7159740E+01  0.0000000E+00
 2.7181849E+01  0.0000000E+00
 2.7203957E+01  0.0000000E+00
 2.7226065E+01  0.0000000E+00
 2.7248173E+01  0.0000000E+00
 2.7270281E+01  0.0000000E+00
 2.7292389E+01  0.0000000E+00
 2.7314497E+01  0.0000000E+00
 2.7336605E+01  0.0000000E+00
 2.7358713E+01  0.0000000E+00
 2.7380821E+01  0.0000000E+00
 2.7402929E+01  0.0000000E+00
 2.7425037E+01  0.0000000E+00
 2.7447145E+01  0.0000000E+00
 2.7469254E+01  0.0000000E+00
 2.7491362E+01  0.0000000E+00
 2.7513470E+01  0.0000000E+00
 2.7535578E+01  0.0000000E+00
 2.7557686E+01  0.0000000E+00
 2.7579794E+01  0.0000000E+00
 2.7601902E+01  0.0000000E+00
 2.7624010E+01  0.0000000E+00
 2.7646118E+01  0.0000000E+00
 2.7668226E+01  0.0000000E+00
 2.7690334E+01  0.0000000E+00
 2.7712442E+01  0.0000000E+00
 2.7734550E+01  0.0000000E+00
 2.7756659E+01  0.0000000E+00
 2.7778767E+01  0.0000000E+00
 2.7800875E+01  0.0000000E+00
 2.7822983E+01  0.0000000E+00
 2.7845091E+01  0.0000000E+00
 2.7867199E+01  0.0000000E+00
 2.7889307E+01  0.0000000E+00
 2.7911415E+01  0.0000000E+00
 2.7933523E+01  0.0000000E+00
 2.7955631E+01  0.0000000E+00
 2.7977739E+01  0.0000000E+00
 2.7999847E+01  0.0000000E+00
 2.8021955E+01  0.0000000E+00
 2.8044064E+01  0.0000000E+00
 2.8066172E+01  0.0000000E+00
 2.8088280E+01  0.0000000E+00
 2.8110388E+01  0.0000000E+00
 2.8132496E+01  0.0000000E+00
 2.8154604E+01  0.0000000E+00
 2.8176712E+01  0.0000000E+00
 2.8198818E+01  0.0000000E+00
 2.8220926E+01  0.0000000E+00
 2.8243034E+01  0.0000000E+00
 2.8265142E+01  0.0000000E+00
 2.8287251E+01  0.0000000E+00
 2.8309359E+01  0.0000000E+00
 2.8331467E+01  0.0000000E+00
 2.8353575E+01  0.0000000E+00
 2.8375683E+01  0.0000000E+00
 2.8397791E+01  0.0000000E+00
 2.8419899E+01  0.0000000E+00
 2.8442007E+01  0.0000000E+00
 2.8464115E+01  0.0000000E+00
 2.8486223E+01  0.0000000E+00
 2.8508331E+01  0.0000000E+00
 2.8530439E+01  0.0000000E+00
 2.8552547E+01  0.0000000E+00
 2.8574656E+01  0.0000000E+00
 2.8596764E+01  0.0000000E+00
 2.8618872E+01  0.0000000E+00
 2.8640980E+01  0.0000000E+00
 2.8663088E+01  0.0000000E+00
 2.8685196E+01  0.0000000E+00
 2.8707304E+01  0.0000000E+00
 2.8729412E+01  0.0000000E+00
 2.8751520E+01  0.0000000E+00
 2.8773628E+01  0.0000000E+00
 2.8795736E+01  0.0000000E+00
 2.8817844E+01  0.0000000E+00
 2.8839952E+01  0.0000000E+00
 2.8862061E+01  0.0000000E+00
 2.8884169E+01  0.0000000E+00
 2.8906277E+01  0.0000000E+00
 2.8928385E+01  0.0000000E+00
 2.8950493E+01  0.0000000E+00
 2.8972601E+01  0.0000000E+00
 2.8994709E+01  0.0000000E+00
 2.9016817E+01  0.0000000E+00
 2.9038925E+01  0.0000000E+00
 2.9061033E+01  0.0000000E+00
 2.9083141E+01  0.0000000E+00
 2.9105249E+01  0.0000000E+00
 2.9127357E+01  0.0000000E+00
 2.9149466E+01  0.0000000E+00
 2.9171574E+01  0.0000000E+00
 2.9193682E+01  0.0000000E+00
 2.9215790E+01  0.0000000E+00
 2.9237898E+01  0.0000000E+00
 2.9260006E+01  0.0000000E+00
 2.9282114E+01  0.0000000E+00
 2.9304222E+01  0.0000000E+00
 2.9326330E+01  0.0000000E+00
 2.9348438E+01  0.0000000E+00
 2.9370546E+01  0.0000000E+00
 2.9392654E+01  0.0000000E+00
 2.9414762E+01  0.0000000E+00
 2.9436871E+01  0.0000000E+00
 2.9458979E+01  0.0000000E+00
 2.9481087E+01  0.0000000E+00
 2.9503195E+01  0.0000000E+00
 2.9525303E+01  0.0000000E+00
 2.9547411E+01  0.0000000E+00
 2.9569519E+01  0.0000000E+00
 2.9591627E+01  0.0000000E+00
 2.9613735E+01  0.0000000E+00
 2.9635843E+01  0.0000000E+00
 2.9657951E+01  0.0000000E+00
 2.9680059E+01  0.0000000E+00
 2.9702168E+01  0.0000000E+00
 2.9724276E+01  0.0000000E+00
 2.9746384E+01  0.0000000E+00
 2.9768490E+01  0.0000000E+00
 2.9790598E+01  0.0000000E+00
 2.9812706E+01  0.0000000E+00
 2.9834814E+01  0.0000000E+00
 2.9856922E+01  0.0000000E+00
 2.9879030E+01  0.0000000E+00
 2.9901138E+01  0.0000000E+00
 2.9923246E+01  0.0000000E+00
 2.9945354E+01  0.0000000E+00
 2.9967463E+01  0.0000000E+00
 2.9989571E+01  0.0000000E+00
 3.0011679E+01  0.0000000E+00
 3.0033787E+01  0.0000000E+00
 3.0055895E+01  0.0000000E+00
 3.0078003E+01  0.0000000E+00
 3.0100111E+01  0.0000000E+00
 3.0122219E+01  0.0000000E+00
 3.0144327E+01  0.0000000E+00
 3.0166435E+01  0.0000000E+00
 3.0188543E+01  0.0000000E+00
 3.0210651E+01  0.0000000E+00
 3.0232759E+01  0.0000000E+00
 3.0254868E+01  0.0000000E+00
 3.0276976E+01  0.0000000E+00
 3.0299084E+01  0.0000000E+00
 3.0321192E+01  0.0000000E+00
 3.0343300E+01  0.0000000E+00
 3.0365408E+01  0.0000000E+00
 3.0387516E+01  0.0000000E+00
 3.0409624E+01  0.0000000E+00
 3.0431732E+01  0.0000000E+00
 3.0453840E+01  0.0000000E+00
 3.0475948E+01  0.0000000E+00
 3.0498056E+01  0.0000000E+00
 3.0520164E+01  0.0000000E+00
 3.0542273E+01  0.0000000E+00
 3.0564381E+01  0.0000000E+00
 3.0586489E+01  0.0000000E+00
 3.0608597E+01  0.0000000E+00
 3.0630705E+01  0.0000000E+00
 3.0652813E+01  0.0000000E+00
 3.0674921E+01  0.0000000E+00
 3.0697029E+01  0.0000000E+00
 3.0719137E+01  0.0000000E+00
 3.0741245E+01  0.0000000E+00
 3.0763353E+01  0.0000000E+00
 3.0785461E+01  0.0000000E+00
 3.0807570E+01  0.0000000E+00
 3.0829678E+01  0.0000000E+00
 3.0851786E+01  0.0000000E+00
 3.0873894E+01  0.0000000E+00
 3.0896002E+01  0.0000000E+00
 3.0918110E+01  0.0000000E+00
 3.0940218E+01  0.0000000E+00
 3.0962326E+01  0.0000000E+00
 3.0984434E+01  0.0000000E+00
 3.1006542E+01  0.0000000E+00
 3.1028650E+01  0.0000000E+00
 3.1050758E+01  0.0000000E+00
 3.1072866E+01  0.0000000E+00
 3.1094975E+01  0.0000000E+00
 3.1117083E+01  0.0000000E+00
 3.1139191E+01  0.0000000E+00
 3.1161299E+01  0.0000000E+00
 3.1183407E+01  0.0000000E+00
 3.1205515E+01  0.0000000E+00
 3.1227623E+01  0.0000000E+00
 3.1249731E+01  0.0000000E+00
 3.1271839E+01  0.0000000E+00
 3.1293947E+01  0.0000000E+00
 3.1316055E+01  0.0000000E+00
 3.1338161E+01  0.0000000E+00
 3.1360270E+01  0.0000000E+00
 3.1382378E+01  0.0000000E+00
 3.1404486E+01  0.0000000E+00
 3.1426594E+01  0.0000000E+00
 3.1448702E+01  0.0000000E+00
 3.1470810E+01  0.0000000E+00
 3.1492918E+01  0.0000000E+00
 3.1515026E+01  0.0000000E+00
 3.1537134E+01  0.0000000E+00
 3.1559242E+01  0.0000000E+00
 3.1581350E+01  0.0000000E+00
 3.1603458E+01  0.0000000E+00
 3.1625566E+01  0.0000000E+00
 3.1647675E+01  0.0000000E+00
 3.1669783E+01  0.0000000E+00
 3.1691891E+01  0.0000000E+00
 3.1713999E+01  0.0000000E+00
 3.1736107E+01  0.0000000E+00
 3.1758215E+01  0.0000000E+00
 3.1780323E+01  0.0000000E+00
 3.1802431E+01  0.0000000E+00
 3.1824539E+01  0.0000000E+00
 3.1846647E+01  0.0000000E+00
 3.1868755E+01  0.0000000E+00
 3.1890863E+01  0.0000000E+00
 3.1912971E+01  0.0000000E+00
 3.1935080E+01  0.0000000E+00
 3.1957188E+01  0.0000000E+00
 3.1979296E+01  0.0000000E+00
 3.2001404E+01  0.0000000E+00
 3.2023514E+01  0.0000000E+00
 3.2045620E+01  0.0000000E+00
 3.2067730E+01  0.0000000E+00
 3.2089836E+01  0.0000000E+00
 3.2111942E+01  0.0000000E+00
 3.2134052E+01  0.0000000E+00
 3.2156158E+01  0.0000000E+00
 3.2178268E+01  0.0000000E+00
 3.2200375E+01  0.0000000E+00
 3.2222485E+01  0.0000000E+00
 3.2244591E+01  0.0000000E+00
 3.2266701E+01  0.0000000E+00
 3.2288807E+01  0.0000000E+00
 3.2310917E+01  0.0000000E+00
 3.2333023E+01  0.0000000E+00
 3.2355133E+01  0.0000000E+00
 3.2377239E+01  0.0000000E+00
 3.2399349E+01  0.0000000E+00
 3.2421455E+01  0.0000000E+00
 3.2443565E+01  0.0000000E+00
 3.2465672E+01  0.0000000E+00
 3.2487782E+01  0.0000000E+00
 3.2509888E+01  0.0000000E+00
 3.2531998E+01  0.0000000E+00
 3.2554104E+01  0.0000000E+00
 3.2576214E+01  0.0000000E+00
 3.2598320E+01  0.0000000E+00
 3.2620430E+01  0.0000000E+00
 3.2642536E+01  0.0000000E+00
 3.2664646E+01  0.0000000E+00
 3.2686752E+01  0.0000000E+00
 3.2708862E+01  0.0000000E+00
 3.2730968E+01  0.0000000E+00
